0,-0.227155
0.001,0.413557
0.002,-0.265201
0.003,-0.388041
0.004,-0.295597
0.005,-0.200105
0.006,-0.195261
0.007,0.0626429
0.008,-0.0687609
0.009,0.205344
0.01,-0.298089
0.011,0.280219
0.012,-0.528085
0.013,0.306937
0.014,-0.0843385
0.015,0.0593644
0.016,-0.686489
0.017,-0.442604
0.018,0.413824
0.019,0.713385
0.02,-0.0924041
0.021,0.215945
0.022,0.628888
0.023,0.627017
0.024,-0.645787
0.025,-0.360146
0.026,-0.137648
0.027,0.499846
0.028,-0.469004
0.029,-0.0920833
0.03,0.455693
0.031,0.0346032
0.032,0.170084
0.033,-0.099967
0.034,0.289475
0.035,0.339372
0.036,-0.156621
0.037,0.645075
0.038,0.22375
0.039,-0.204522
0.04,0.230211
0.041,-0.167225
0.042,-0.0330615
0.043,0.236597
0.044,-0.341993
0.045,-0.096231
0.046,-0.383996
0.047,-0.212659
0.048,0.352815
0.049,-0.488568
0.05,-0.1639
0.051,0.0228681
0.052,-0.482489
0.053,0.126168
0.054,-0.669722
0.055,0.107896
0.056,0.188086
0.057,-0.404571
0.058,-0.129116
0.059,0.24934
0.06,-0.0549412
0.061,-0.607958
0.062,0.0567353
0.063,0.14174
0.064,0.0651286
0.065,0.194747
0.066,0.191208
0.067,0.498211
0.068,-0.32387
0.069,-0.581487
0.07,0.329593
0.071,-0.0706483
0.072,-0.380591
0.073,0.433981
0.074,-0.13238
0.075,0.360301
0.076,0.178401
0.077,0.555505
0.078,0.204586
0.079,0.275405
0.08,-0.167462
0.081,-0.155786
0.082,0.6185
0.083,-0.0653601
0.084,0.116748
0.085,-0.510789
0.086,0.268408
0.087,0.0228886
0.088,0.222703
0.089,-0.0113051
0.09,-0.302094
0.091,0.669415
0.092,0.146169
0.093,-0.637363
0.094,0.164631
0.095,-0.110268
0.096,0.10292
0.097,0.622416
0.098,-0.0469018
0.099,0.694354
0.1,0.234346
0.101,-0.275424
0.102,0.78611
0.103,0.330403
0.104,0.344103
0.105,-0.396636
0.106,0.415716
0.107,0.321079
0.108,-0.202766
0.109,0.397543
0.11,0.300833
0.111,0.292927
0.112,0.352067
0.113,-0.129224
0.114,-0.338647
0.115,-0.14164
0.116,-0.396842
0.117,-0.0215842
0.118,0.40847
0.119,0.140956
0.12,0.219894
0.121,0.383635
0.122,-0.176134
0.123,-0.0129604
0.124,0.197006
0.125,0.551713
0.126,0.145091
0.127,-0.657139
0.128,0.326646
0.129,-0.291386
0.13,0.44205
0.131,-0.0487255
0.132,0.574123
0.133,0.294696
0.134,0.0993883
0.135,-0.293547
0.136,-0.246456
0.137,-0.692273
0.138,-0.806543
0.139,-0.5673
0.14,-0.327124
0.141,0.0824419
0.142,0.0753236
0.143,-0.292777
0.144,-0.362382
0.145,0.414655
0.146,0.0417036
0.147,-0.154972
0.148,-0.17103
0.149,0.139207
0.15,-0.601211
0.151,0.0558262
0.152,0.172328
0.153,0.466779
0.154,-0.237701
0.155,-0.025743
0.156,0.249135
0.157,0.548361
0.158,-0.515523
0.159,-0.633681
0.16,-0.187451
0.161,-0.0431651
0.162,0.131554
0.163,0.0484833
0.164,-0.225991
0.165,0.245915
0.166,0.0275064
0.167,-0.152395
0.168,0.0148134
0.169,0.422246
0.17,0.151714
0.171,-0.162565
0.172,-0.650805
0.173,-0.118479
0.174,0.0366419
0.175,-0.17846
0.176,0.135513
0.177,-0.419997
0.178,-0.15341
0.179,0.15852
0.18,-0.602831
0.181,0.13619
0.182,0.0125873
0.183,0.497895
0.184,-0.230258
0.185,-0.625563
0.186,0.236579
0.187,0.359136
0.188,0.244547
0.189,0.551374
0.19,-0.499054
0.191,-0.384932
0.192,0.151247
0.193,0.412361
0.194,0.814319
0.195,0.0239307
0.196,0.0798549
0.197,0.242632
0.198,-0.115825
0.199,-0.0395638
0.2,-0.0041479
0.201,0.00292913
0.202,0.590514
0.203,0.312129
0.204,-0.216447
0.205,0.0580557
0.206,-0.420911
0.207,-0.332285
0.208,-0.658264
0.209,-0.194905
0.21,-0.712839
0.211,0.674126
0.212,0.0163692
0.213,-0.799118
0.214,-0.490749
0.215,-0.516948
0.216,-0.983794
0.217,-0.0208823
0.218,-0.503447
0.219,0.0129892
0.22,-0.242067
0.221,-0.0955027
0.222,-0.262195
0.223,0.484618
0.224,-0.381593
0.225,-0.275765
0.226,0.0631946
0.227,-0.375685
0.228,-0.22775
0.229,-0.0762184
0.23,-1.06469
0.231,0.0190071
0.232,-0.0360576
0.233,0.591814
0.234,0.0153428
0.235,0.833443
0.236,0.392209
0.237,0.163583
0.238,0.796722
0.239,0.573162
0.24,0.467885
0.241,0.625029
0.242,0.88403
0.243,1.2492
0.244,0.698751
0.245,1.05621
0.246,0.899537
0.247,1.06846
0.248,0.895604
0.249,0.914528
0.25,0.477756
0.251,0.838263
0.252,0.790206
0.253,0.743637
0.254,0.927673
0.255,0.827339
0.256,0.483352
0.257,0.202177
0.258,0.452499
0.259,0.167528
0.26,0.0643839
0.261,0.073063
0.262,-0.0569369
0.263,-0.0955433
0.264,0.118571
0.265,-0.0950466
0.266,0.393171
0.267,0.147164
0.268,-0.340656
0.269,-0.122159
0.27,-0.221701
0.271,-0.000246944
0.272,0.617165
0.273,0.500982
0.274,0.090154
0.275,-0.144897
0.276,-0.274953
0.277,0.342937
0.278,0.00053238
0.279,0.172752
0.28,0.0165482
0.281,0.0859013
0.282,0.0253149
0.283,0.0960322
0.284,0.0622902
0.285,-0.0111261
0.286,-0.145172
0.287,-0.569883
0.288,-0.097849
0.289,-0.243499
0.29,0.268056
0.291,-0.178655
0.292,0.596139
0.293,0.25627
0.294,0.320231
0.295,0.122699
0.296,-0.301565
0.297,0.0103726
0.298,-0.0968026
0.299,-0.381092
0.3,0.204099
0.301,-0.0608322
0.302,0.51773
0.303,0.468763
0.304,-0.136376
0.305,-0.355512
0.306,-0.291871
0.307,0.0261826
0.308,0.0760549
0.309,-0.298128
0.31,-0.3181
0.311,0.159132
0.312,-0.0496328
0.313,0.142243
0.314,-0.229312
0.315,-0.687841
0.316,0.0197101
0.317,-0.0213994
0.318,-0.24922
0.319,0.154754
0.32,0.0225801
0.321,0.163129
0.322,-0.830252
0.323,0.151989
0.324,-0.116442
0.325,0.0319968
0.326,0.388727
0.327,-0.405997
0.328,-0.167258
0.329,0.182237
0.33,0.309755
0.331,0.00481564
0.332,0.314572
0.333,0.402443
0.334,0.303209
0.335,-0.166807
0.336,0.205822
0.337,0.289397
0.338,0.103184
0.339,0.400956
0.34,-0.553314
0.341,0.569745
0.342,0.19156
0.343,-0.207028
0.344,-0.180189
0.345,0.171563
0.346,-0.227994
0.347,0.324871
0.348,-0.0647412
0.349,0.113971
0.35,0.499302
0.351,-0.413843
0.352,-0.321914
0.353,0.461751
0.354,0.0441383
0.355,0.994
0.356,0.100538
0.357,0.0456297
0.358,-0.368853
0.359,-0.241884
0.36,-0.522272
0.361,-0.389752
0.362,0.454308
0.363,-0.390568
0.364,-0.17358
0.365,0.563548
0.366,0.214187
0.367,0.214512
0.368,-0.485754
0.369,-0.0542957
0.37,0.0774859
0.371,0.531761
0.372,-0.225481
0.373,-0.173206
0.374,-0.288488
0.375,0.469632
0.376,-0.0176693
0.377,-0.739874
0.378,0.0218723
0.379,-0.384066
0.38,0.264063
0.381,-0.201575
0.382,-0.31955
0.383,0.0628827
0.384,0.239328
0.385,-0.111795
0.386,0.388747
0.387,0.0375831
0.388,0.048324
0.389,0.6616
0.39,0.255922
0.391,-0.520945
0.392,0.144434
0.393,-0.0110982
0.394,0.245331
0.395,-0.279449
0.396,-0.286907
0.397,-0.403923
0.398,-0.0398822
0.399,-0.576112
0.4,0.080222
0.401,0.313925
0.402,0.231441
0.403,0.40261
0.404,-0.249854
0.405,0.311762
0.406,-0.0771408
0.407,0.449093
0.408,0.0644635
0.409,-0.463299
0.41,-0.472828
0.411,-0.596497
0.412,-0.474603
0.413,-0.0101913
0.414,-0.313055
0.415,-0.916896
0.416,0.633065
0.417,-0.0573844
0.418,0.435743
0.419,-0.0631335
0.42,-0.0132842
0.421,0.0187258
0.422,0.0355147
0.423,0.782259
0.424,-0.0918882
0.425,1.08853
0.426,-0.535673
0.427,0.158031
0.428,-0.456292
0.429,0.216732
0.43,-0.532358
0.431,0.0840998
0.432,-0.336886
0.433,0.764609
0.434,0.391102
0.435,0.638878
0.436,-0.0974988
0.437,-0.343067
0.438,-0.419185
0.439,0.243716
0.44,0.547459
0.441,0.8907
0.442,0.384015
0.443,0.270524
0.444,1.21011
0.445,-0.0243044
0.446,-0.220719
0.447,-0.253243
0.448,-0.558796
0.449,0.622236
0.45,-0.471612
0.451,-0.196545
0.452,0.480607
0.453,-0.048494
0.454,1.27245
0.455,0.146187
0.456,-0.158442
0.457,0.351553
0.458,-0.127042
0.459,0.0928539
0.46,0.130701
0.461,0.825861
0.462,-0.269182
0.463,0.357363
0.464,0.627187
0.465,-0.156487
0.466,0.152958
0.467,-0.163385
0.468,0.756711
0.469,0.203486
0.47,0.291889
0.471,0.0624449
0.472,0.281867
0.473,-0.0387048
0.474,-0.709764
0.475,0.202251
0.476,-0.142858
0.477,0.177589
0.478,0.610519
0.479,0.104606
0.48,-0.340889
0.481,0.0962574
0.482,0.892136
0.483,0.666002
0.484,0.474373
0.485,0.683989
0.486,-0.00395909
0.487,-0.243545
0.488,-0.0914292
0.489,0.0398347
0.49,-0.376349
0.491,0.213956
0.492,-0.0145187
0.493,0.361723
0.494,-0.159952
0.495,0.285888
0.496,-0.285363
0.497,0.233175
0.498,0.00987934
0.499,-0.202287
0.5,0.0383416
0.501,0.250391
0.502,0.145659
0.503,0.160769
0.504,-0.238116
0.505,0.275868
0.506,0.201853
0.507,0.539067
0.508,0.718061
0.509,0.254022
0.51,-0.503387
0.511,-0.149995
0.512,-0.0727715
0.513,0.0436866
0.514,0.0161667
0.515,0.694003
0.516,-0.546737
0.517,0.575757
0.518,0.297462
0.519,0.31845
0.52,0.26807
0.521,0.174019
0.522,0.0775787
0.523,-0.978492
0.524,-0.123419
0.525,0.0820118
0.526,0.356398
0.527,0.0499096
0.528,0.0263788
0.529,-0.235108
0.53,-0.19875
0.531,0.290491
0.532,-0.392795
0.533,0.379904
0.534,-0.225742
0.535,-0.140556
0.536,0.0676495
0.537,0.253691
0.538,-0.00536003
0.539,-0.17384
0.54,-0.00240991
0.541,0.0553844
0.542,0.33734
0.543,0.290451
0.544,-0.30812
0.545,-0.743206
0.546,0.0762515
0.547,0.354241
0.548,-1.0153
0.549,0.265528
0.55,0.298917
0.551,-0.028742
0.552,0.276607
0.553,0.24646
0.554,-0.243083
0.555,0.437619
0.556,0.427115
0.557,0.170863
0.558,0.283089
0.559,0.0739018
0.56,-0.210646
0.561,0.102685
0.562,0.204383
0.563,-0.105252
0.564,0.0907057
0.565,-0.227593
0.566,0.195676
0.567,-0.251619
0.568,0.221196
0.569,-0.0746443
0.57,0.292849
0.571,-0.0487081
0.572,-0.452134
0.573,0.278073
0.574,-0.40699
0.575,0.106864
0.576,0.163431
0.577,-0.181474
0.578,-0.316293
0.579,-0.234415
0.58,-0.376917
0.581,-0.165916
0.582,-0.316775
0.583,-0.706815
0.584,0.22736
0.585,0.400646
0.586,-0.272535
0.587,-0.35252
0.588,-0.351865
0.589,0.532799
0.59,0.231865
0.591,0.02398
0.592,-0.206154
0.593,0.35286
0.594,-0.0823459
0.595,0.221868
0.596,0.0661528
0.597,-0.014864
0.598,-0.352477
0.599,0.688733
0.6,-0.334578
0.601,-0.569094
0.602,-0.0825672
0.603,-0.102416
0.604,-0.31288
0.605,0.200185
0.606,-0.130809
0.607,0.143213
0.608,0.448577
0.609,-0.492438
0.61,0.155075
0.611,0.504325
0.612,0.116532
0.613,0.180623
0.614,-0.0811971
0.615,0.210845
0.616,0.214412
0.617,-0.13718
0.618,0.248813
0.619,-0.663164
0.62,0.475439
0.621,-0.319106
0.622,-0.0523495
0.623,-0.140376
0.624,-0.202131
0.625,0.701372
0.626,-0.178352
0.627,0.0311351
0.628,-0.00687192
0.629,-0.258303
0.63,-0.403235
0.631,-0.681639
0.632,0.00922542
0.633,-0.289041
0.634,-0.251276
0.635,-0.679321
0.636,0.345662
0.637,-0.58207
0.638,0.722181
0.639,-0.728692
0.64,0.0956273
0.641,-0.831837
0.642,0.132833
0.643,-0.346942
0.644,0.0329963
0.645,0.225351
0.646,-0.274017
0.647,0.0520371
0.648,-0.322253
0.649,0.416912
0.65,0.343347
0.651,-0.253181
0.652,0.817051
0.653,-0.89291
0.654,0.315897
0.655,0.0795157
0.656,-0.12292
0.657,0.184631
0.658,0.306214
0.659,1.07385
0.66,-0.21659
0.661,0.265151
0.662,0.360037
0.663,0.0185115
0.664,0.0738172
0.665,0.403384
0.666,-0.123286
0.667,0.180463
0.668,0.336778
0.669,0.135522
0.67,-0.078802
0.671,0.0873154
0.672,-0.670587
0.673,0.248938
0.674,0.547032
0.675,-0.288867
0.676,-0.198831
0.677,-0.25327
0.678,-0.353134
0.679,0.255695
0.68,0.0298385
0.681,-0.149773
0.682,-0.208712
0.683,-0.260946
0.684,0.225025
0.685,-0.0675878
0.686,-0.0440019
0.687,-0.0258359
0.688,0.392767
0.689,-0.0885166
0.69,-0.13824
0.691,0.13788
0.692,-0.237474
0.693,-0.0579961
0.694,-0.17819
0.695,0.171218
0.696,0.42916
0.697,-0.0532507
0.698,0.293652
0.699,-0.0232329
0.7,0.308724
0.701,-0.215062
0.702,-0.0396034
0.703,0.263293
0.704,0.175801
0.705,0.620041
0.706,0.00900318
0.707,-0.00180445
0.708,0.362049
0.709,-0.560893
0.71,0.112863
0.711,0.80922
0.712,0.0090802
0.713,-0.178479
0.714,0.486671
0.715,-0.510137
0.716,0.233217
0.717,0.0786655
0.718,0.734574
0.719,0.167816
0.72,0.227619
0.721,-0.604142
0.722,0.561294
0.723,-0.191154
0.724,-0.178601
0.725,0.734544
0.726,0.357653
0.727,-0.0714004
0.728,-0.402127
0.729,0.370072
0.73,-0.024738
0.731,-0.581568
0.732,0.603918
0.733,0.343404
0.734,-0.00643539
0.735,0.455064
0.736,-0.0986969
0.737,0.0848736
0.738,-0.0957364
0.739,0.00645313
0.74,-0.538095
0.741,0.889474
0.742,-0.14909
0.743,-0.456785
0.744,-0.212669
0.745,-0.658677
0.746,0.136199
0.747,0.00972366
0.748,0.00513521
0.749,0.516836
0.75,0.0886252
0.751,0.228728
0.752,-0.0577732
0.753,0.187717
0.754,-0.195734
0.755,-0.151058
0.756,-0.654785
0.757,-0.165609
0.758,-0.418282
0.759,-0.103142
0.76,0.249182
0.761,-0.111009
0.762,0.470957
0.763,0.151054
0.764,-0.101575
0.765,0.281678
0.766,0.122328
0.767,-0.236226
0.768,0.405933
0.769,-0.0134312
0.77,-0.174202
0.771,-0.057909
0.772,0.0893486
0.773,-0.179909
0.774,0.367424
0.775,-0.103953
0.776,0.0726421
0.777,-0.00570132
0.778,0.30989
0.779,0.595099
0.78,-0.592207
0.781,0.0654867
0.782,0.4548
0.783,-0.0620691
0.784,0.443424
0.785,-0.225033
0.786,0.206143
0.787,0.172104
0.788,-0.111227
0.789,-0.378122
0.79,-0.0822714
0.791,0.364332
0.792,-0.175132
0.793,0.404708
0.794,-0.577413
0.795,-0.227082
0.796,-0.407507
0.797,0.145782
0.798,0.199926
0.799,0.270438
0.8,-0.0853345
0.801,0.205026
0.802,-0.299701
0.803,-0.0841351
0.804,-0.0825766
0.805,-0.182158
0.806,-0.3334
0.807,0.0828336
0.808,0.194763
0.809,0.122328
0.81,0.0967832
0.811,-0.377137
0.812,-0.534528
0.813,0.0123439
0.814,0.555193
0.815,-0.706861
0.816,-0.0640196
0.817,-0.0536616
0.818,0.00647334
0.819,-0.424483
0.82,-0.23463
0.821,-0.370336
0.822,0.408513
0.823,0.405418
0.824,-0.0642675
0.825,0.0403572
0.826,-0.46685
0.827,0.0270744
0.828,-0.121713
0.829,0.610402
0.83,0.283533
0.831,0.203653
0.832,-0.144588
0.833,0.0157804
0.834,1.12235
0.835,0.569001
0.836,0.0490349
0.837,0.185139
0.838,0.106512
0.839,-0.0248052
0.84,-0.0562494
0.841,0.0824322
0.842,0.334899
0.843,0.309854
0.844,0.121851
0.845,0.411292
0.846,-0.414393
0.847,0.273684
0.848,-0.534079
0.849,-0.0555793
0.85,-0.153306
0.851,0.202634
0.852,-0.749562
0.853,-0.214004
0.854,-0.51003
0.855,0.206591
0.856,0.139038
0.857,-0.00691223
0.858,-0.0172417
0.859,0.480853
0.86,0.0398304
0.861,0.0805152
0.862,-0.186934
0.863,0.0901925
0.864,-0.0151801
0.865,-0.0107753
0.866,-0.0864609
0.867,-0.0185089
0.868,0.0201428
0.869,0.524211
0.87,-0.128905
0.871,0.406165
0.872,0.16289
0.873,0.576856
0.874,-0.0344131
0.875,-0.177818
0.876,0.527682
0.877,-0.88385
0.878,-0.111734
0.879,1.0577
0.88,0.115061
0.881,-0.625202
0.882,0.110695
0.883,0.216971
0.884,0.361381
0.885,0.581986
0.886,0.0346334
0.887,0.299809
0.888,0.314947
0.889,0.110251
0.89,0.13824
0.891,-0.202428
0.892,-0.0633571
0.893,-0.246213
0.894,0.229741
0.895,0.103505
0.896,0.0623208
0.897,0.643928
0.898,0.171789
0.899,0.107798
0.9,-0.0665442
0.901,-0.481204
0.902,-0.0105165
0.903,-0.703623
0.904,-0.0769594
0.905,0.125016
0.906,0.559228
0.907,-0.169577
0.908,0.222308
0.909,0.112849
0.91,-0.675236
0.911,-0.54509
0.912,0.0353981
0.913,0.529437
0.914,-0.114424
0.915,0.330401
0.916,-0.165129
0.917,-0.290468
0.918,-0.375126
0.919,-0.00402233
0.92,-0.158053
0.921,0.200555
0.922,-0.445004
0.923,-0.285421
0.924,-0.376963
0.925,-0.330924
0.926,0.258637
0.927,-0.125625
0.928,-0.167734
0.929,0.070864
0.93,0.375183
0.931,0.690001
0.932,0.553891
0.933,0.478534
0.934,-0.653851
0.935,-0.605695
0.936,-0.0293632
0.937,-0.256985
0.938,0.375591
0.939,-0.0290421
0.94,0.0272231
0.941,0.292632
0.942,-0.0428597
0.943,0.191811
0.944,-0.208567
0.945,-0.229432
0.946,-0.254602
0.947,0.0278539
0.948,-0.31195
0.949,0.26678
0.95,-0.874386
0.951,-0.177933
0.952,0.185179
0.953,-0.205597
0.954,-0.115638
0.955,0.0308839
0.956,0.0248048
0.957,-0.405896
0.958,0.150957
0.959,0.607317
0.96,0.264183
0.961,-0.246713
0.962,0.0208117
0.963,-0.198459
0.964,0.0241551
0.965,0.657725
0.966,-0.204732
0.967,0.304494
0.968,-0.381241
0.969,0.0796373
0.97,-0.20106
0.971,0.173636
0.972,0.229862
0.973,0.147656
0.974,-0.0504754
0.975,-0.388272
0.976,-0.919514
0.977,-0.169455
0.978,-0.515381
0.979,0.316862
0.98,0.122062
0.981,-0.0970216
0.982,0.164802
0.983,0.0226678
0.984,-0.698783
0.985,-0.154191
0.986,-0.400447
0.987,-0.260204
0.988,-0.719168
0.989,0.0692068
0.99,-0.0325025
0.991,0.0139829
0.992,-0.15935
0.993,0.49002
0.994,-0.189869
0.995,-0.612195
0.996,0.145129
0.997,0.0747762
0.998,0.0473246
0.999,-0.00140674
1,-0.704786
1.001,-0.565776
1.002,-0.496906
1.003,-0.401025
1.004,-0.0409037
1.005,-0.812858
1.006,-0.396746
1.007,-1.14999
1.008,-0.0842524
1.009,-0.162091
1.01,-0.802268
1.011,-0.38785
1.012,-0.610936
1.013,0.575022
1.014,0.662132
1.015,-0.0642107
1.016,0.392222
1.017,-0.256113
1.018,0.230982
1.019,-0.221078
1.02,-0.451058
1.021,0.592698
1.022,0.24198
1.023,-0.300646
1.024,0.731801
1.025,0.569174
1.026,0.513904
1.027,0.537842
1.028,0.292704
1.029,0.697384
1.03,1.09875
1.031,0.231231
1.032,0.22977
1.033,1.21521
1.034,0.996458
1.035,0.898692
1.036,0.567956
1.037,0.430096
1.038,1.12791
1.039,0.662651
1.04,0.250019
1.041,0.869136
1.042,0.366525
1.043,0.9502
1.044,0.962177
1.045,0.403197
1.046,0.434034
1.047,0.284989
1.048,0.345732
1.049,0.392323
1.05,-0.2094
1.051,0.425903
1.052,0.0688306
1.053,-0.507216
1.054,-0.396242
1.055,0.0622126
1.056,-0.540007
1.057,-0.439104
1.058,-0.452106
1.059,0.454003
1.06,0.0712812
1.061,0.243613
1.062,-0.27514
1.063,0.019063
1.064,0.0559843
1.065,0.0826786
1.066,-0.402132
1.067,0.355627
1.068,0.485009
1.069,0.0371614
1.07,-0.36418
1.071,0.364507
1.072,-0.43978
1.073,-0.106498
1.074,0.35511
1.075,0.198261
1.076,0.73273
1.077,0.144229
1.078,0.55376
1.079,0.436421
1.08,-0.21099
1.081,-0.0800561
1.082,0.202295
1.083,0.0382085
1.084,-0.61286
1.085,0.287801
1.086,-0.25289
1.087,-0.396161
1.088,0.453518
1.089,-0.537876
1.09,-0.245756
1.091,-0.829099
1.092,0.563136
1.093,0.0925694
1.094,-0.182552
1.095,0.348005
1.096,0.0527147
1.097,-0.0266215
1.098,0.195196
1.099,-0.232162
1.1,-0.345641
1.101,-0.210915
1.102,-0.122786
1.103,0.181145
1.104,0.120298
1.105,-0.421633
1.106,0.772626
1.107,0.260448
1.108,0.180735
1.109,0.215819
1.11,-0.43413
1.111,-0.0200701
1.112,-0.0627187
1.113,0.149402
1.114,-0.0382096
1.115,0.129603
1.116,0.208548
1.117,0.249804
1.118,0.0956119
1.119,-0.880358
1.12,0.172488
1.121,0.399722
1.122,0.525269
1.123,-0.387229
1.124,-0.380451
1.125,-0.135253
1.126,-0.186378
1.127,0.414
1.128,0.112598
1.129,0.286339
1.13,-0.00974753
1.131,-0.38165
1.132,-0.767518
1.133,-0.190796
1.134,-0.563428
1.135,0.282415
1.136,0.140536
1.137,0.238861
1.138,0.00367738
1.139,-0.257205
1.14,-0.210006
1.141,-0.0317856
1.142,-0.255127
1.143,-0.488164
1.144,0.395936
1.145,0.355488
1.146,-0.17705
1.147,0.246871
1.148,-0.0801818
1.149,0.555865
1.15,0.174222
1.151,0.143458
1.152,-0.266919
1.153,0.0718429
1.154,0.183008
1.155,-0.190523
1.156,0.63951
1.157,0.682723
1.158,-0.237502
1.159,0.216849
1.16,0.640105
1.161,-0.430788
1.162,0.632098
1.163,-0.420212
1.164,0.36706
1.165,0.118924
1.166,-0.14104
1.167,-0.148613
1.168,0.255922
1.169,0.169722
1.17,0.535751
1.171,0.141654
1.172,0.86582
1.173,0.16302
1.174,-0.487573
1.175,-0.0179201
1.176,-0.240477
1.177,0.769608
1.178,-0.118035
1.179,0.820782
1.18,0.0576903
1.181,-0.152564
1.182,-0.383268
1.183,-0.191229
1.184,-0.722095
1.185,0.172346
1.186,-0.0361469
1.187,0.813464
1.188,0.873266
1.189,-0.208352
1.19,-0.0219639
1.191,0.0156548
1.192,0.0978819
1.193,0.194023
1.194,0.024918
1.195,-0.0278279
1.196,-0.0851924
1.197,0.558257
1.198,-0.578273
1.199,0.431636
1.2,-0.249098
1.201,0.43948
1.202,-0.0480994
1.203,0.569003
1.204,-0.247024
1.205,-0.434547
1.206,0.35465
1.207,0.0928933
1.208,-0.0569588
1.209,-0.287198
1.21,-0.338654
1.211,0.296995
1.212,0.613344
1.213,0.222183
1.214,0.0499167
1.215,0.789477
1.216,0.0659374
1.217,-0.0280845
1.218,-0.108219
1.219,1.03499
1.22,-0.0889375
1.221,0.07885
1.222,0.0245407
1.223,0.505261
1.224,-0.0251276
1.225,-0.0542201
1.226,0.311324
1.227,-0.082377
1.228,-0.16145
1.229,0.532633
1.23,0.420953
1.231,0.168131
1.232,-0.126727
1.233,0.292136
1.234,0.316381
1.235,-0.0892226
1.236,-0.24604
1.237,0.971275
1.238,0.0752038
1.239,0.471562
1.24,-0.290858
1.241,0.315245
1.242,0.0737043
1.243,0.0602801
1.244,-0.268208
1.245,-0.16513
1.246,0.275633
1.247,0.227317
1.248,0.52322
1.249,-0.710914
1.25,0.481369
1.251,0.139198
1.252,-0.184478
1.253,-0.0134007
1.254,-0.142539
1.255,0.615259
1.256,0.375808
1.257,0.55622
1.258,0.00326857
1.259,0.420509
1.26,0.205194
1.261,0.547872
1.262,0.135626
1.263,0.306372
1.264,0.378908
1.265,-0.0274255
1.266,0.177076
1.267,0.0476464
1.268,0.277723
1.269,0.508655
1.27,0.0843185
1.271,-0.0515906
1.272,0.732055
1.273,0.23738
1.274,0.0259843
1.275,0.30774
1.276,0.111528
1.277,-0.152789
1.278,0.0938725
1.279,0.0724891
1.28,-0.171811
1.281,0.620646
1.282,0.308019
1.283,0.249357
1.284,0.417123
1.285,0.197004
1.286,0.338124
1.287,0.7286
1.288,0.750767
1.289,-0.298884
1.29,-0.315349
1.291,-0.202582
1.292,0.296829
1.293,-0.465708
1.294,-0.496975
1.295,0.127212
1.296,-0.582793
1.297,-0.0122908
1.298,0.157512
1.299,0.0652357
1.3,0.160898
1.301,0.155135
1.302,-0.0361195
1.303,0.346627
1.304,0.284847
1.305,0.216777
1.306,0.11937
1.307,-0.0623677
1.308,0.232918
1.309,0.677152
1.31,0.208818
1.311,0.636375
1.312,0.000582855
1.313,0.240887
1.314,-0.227904
1.315,0.153803
1.316,0.0725439
1.317,-1.01019
1.318,0.0741787
1.319,0.417101
1.32,-0.451913
1.321,0.120081
1.322,0.340534
1.323,0.261431
1.324,0.274401
1.325,-0.571959
1.326,-0.204209
1.327,0.39361
1.328,0.511116
1.329,0.131322
1.33,0.512593
1.331,0.520568
1.332,0.692999
1.333,0.803347
1.334,-0.90087
1.335,-0.399555
1.336,-0.249667
1.337,0.366481
1.338,-0.272893
1.339,0.340129
1.34,0.365545
1.341,0.00660879
1.342,-0.109771
1.343,-0.142058
1.344,-0.100401
1.345,0.504404
1.346,0.350286
1.347,-0.276999
1.348,-0.620538
1.349,0.6383
1.35,0.273648
1.351,-0.106665
1.352,0.477807
1.353,-0.0545487
1.354,-0.0978156
1.355,0.700197
1.356,0.643739
1.357,0.027121
1.358,0.430127
1.359,0.669215
1.36,0.0193307
1.361,-0.110611
1.362,0.247523
1.363,-0.0318652
1.364,0.149348
1.365,0.557164
1.366,0.383573
1.367,-0.197581
1.368,-1.04862
1.369,-0.227204
1.37,0.0421769
1.371,-0.142988
1.372,0.220427
1.373,0.520874
1.374,-0.291119
1.375,0.654539
1.376,0.702447
1.377,0.871737
1.378,-0.497563
1.379,-0.365132
1.38,-0.874004
1.381,-0.170993
1.382,-0.428186
1.383,-0.124654
1.384,-0.24485
1.385,0.587542
1.386,-0.0145
1.387,-0.261142
1.388,0.00372126
1.389,0.271747
1.39,-0.381072
1.391,0.259338
1.392,0.533993
1.393,0.0986117
1.394,0.601646
1.395,-0.230641
1.396,-0.0536028
1.397,-0.710766
1.398,-0.143578
1.399,0.533895
1.4,-0.219108
1.401,0.494056
1.402,0.440533
1.403,0.562953
1.404,-0.498906
1.405,0.351213
1.406,0.119703
1.407,-0.333161
1.408,-0.341114
1.409,-0.35408
1.41,-0.0331022
1.411,-0.867666
1.412,-0.229129
1.413,-0.360728
1.414,0.278758
1.415,0.0725494
1.416,0.614795
1.417,-0.273078
1.418,0.137003
1.419,-0.3268
1.42,0.0205603
1.421,0.21235
1.422,0.71646
1.423,-0.422529
1.424,-0.195854
1.425,-0.179181
1.426,-0.784106
1.427,-1.02115
1.428,-0.00474911
1.429,-0.353315
1.43,-0.201635
1.431,0.176439
1.432,-0.165792
1.433,-0.201843
1.434,0.0970211
1.435,-0.0952126
1.436,0.214916
1.437,-0.00425718
1.438,0.0268151
1.439,-0.12983
1.44,-0.175176
1.441,-0.235806
1.442,0.307077
1.443,0.394044
1.444,0.721281
1.445,-0.497529
1.446,0.392345
1.447,0.472581
1.448,-0.208124
1.449,-0.36656
1.45,0.107348
1.451,-0.438085
1.452,-0.0706776
1.453,-0.29968
1.454,0.357163
1.455,-0.00700966
1.456,0.637407
1.457,0.319483
1.458,-0.020701
1.459,0.396613
1.46,-0.235948
1.461,0.07647
1.462,0.295966
1.463,-0.119837
1.464,-0.812095
1.465,-0.00320593
1.466,-0.019534
1.467,0.0806324
1.468,-0.465394
1.469,-0.262059
1.47,-0.586403
1.471,0.220412
1.472,0.252941
1.473,-0.276543
1.474,0.198676
1.475,-0.330215
1.476,-0.873375
1.477,-0.464667
1.478,0.469812
1.479,0.346347
1.48,-0.227426
1.481,0.55687
1.482,0.333428
1.483,-0.120383
1.484,-0.0513303
1.485,0.144582
1.486,-0.546875
1.487,-0.254365
1.488,-0.329419
1.489,-0.334726
1.49,0.167107
1.491,0.0364831
1.492,-0.152898
1.493,0.12966
1.494,-0.319019
1.495,-0.531888
1.496,-0.0415638
1.497,-0.408534
1.498,-0.363261
1.499,0.322674
1.5,-0.518643
1.501,0.31416
1.502,-0.232014
1.503,-0.848078
1.504,0.0794081
1.505,0.408829
1.506,0.676371
1.507,-0.248789
1.508,-0.434859
1.509,0.155315
1.51,0.298687
1.511,0.532349
1.512,0.118193
1.513,0.381122
1.514,0.348564
1.515,-0.0751085
1.516,0.0988852
1.517,0.00413674
1.518,0.201799
1.519,0.130506
1.52,0.00855054
1.521,0.376763
1.522,0.00375312
1.523,0.210962
1.524,-0.20267
1.525,-0.621306
1.526,0.452104
1.527,0.237363
1.528,-0.377807
1.529,0.0391933
1.53,0.388287
1.531,-0.149394
1.532,-0.439577
1.533,0.11422
1.534,-0.362011
1.535,0.17568
1.536,0.0712907
1.537,0.286434
1.538,-0.600509
1.539,-0.541365
1.54,0.137442
1.541,-0.18215
1.542,-0.452516
1.543,-0.161211
1.544,0.198156
1.545,-0.170367
1.546,0.642775
1.547,0.35785
1.548,0.916402
1.549,0.149064
1.55,-0.115995
1.551,0.22298
1.552,-0.254053
1.553,-0.127286
1.554,0.0340455
1.555,0.149595
1.556,0.714031
1.557,-0.502494
1.558,0.337665
1.559,0.60523
1.56,0.123509
1.561,0.504947
1.562,-0.280802
1.563,0.517922
1.564,-0.201085
1.565,0.46792
1.566,-0.686417
1.567,-0.402937
1.568,0.968286
1.569,0.173885
1.57,-0.0844898
1.571,-0.292033
1.572,0.135717
1.573,-0.564746
1.574,-0.162866
1.575,-0.261146
1.576,0.209313
1.577,0.218325
1.578,0.205062
1.579,0.586329
1.58,0.245793
1.581,0.152698
1.582,-0.0482154
1.583,0.62064
1.584,-0.272943
1.585,0.660743
1.586,-0.119809
1.587,0.0990425
1.588,0.258153
1.589,-0.183117
1.59,-0.433809
1.591,0.0609303
1.592,0.282795
1.593,0.427589
1.594,-0.0374709
1.595,0.544567
1.596,0.036515
1.597,0.219439
1.598,0.122412
1.599,-0.601262
1.6,-0.321358
1.601,0.676265
1.602,0.231078
1.603,0.265228
1.604,-0.129129
1.605,0.110482
1.606,0.257308
1.607,0.128734
1.608,-0.156561
1.609,-0.029715
1.61,-0.607276
1.611,0.970166
1.612,1.00319
1.613,-0.752882
1.614,0.314498
1.615,-0.059723
1.616,0.237795
1.617,0.00351837
1.618,0.223564
1.619,-0.0961252
1.62,-0.136053
1.621,0.638756
1.622,0.618642
1.623,0.254912
1.624,-0.105241
1.625,0.593991
1.626,0.183677
1.627,0.384864
1.628,-0.195853
1.629,0.643586
1.63,-0.00881784
1.631,0.251359
1.632,0.296265
1.633,0.311627
1.634,-0.104392
1.635,0.384079
1.636,0.469323
1.637,0.20718
1.638,-0.382884
1.639,-0.300106
1.64,-0.13692
1.641,-0.311349
1.642,-0.476636
1.643,0.299409
1.644,-0.451702
1.645,-0.403472
1.646,0.346952
1.647,0.71879
1.648,0.19865
1.649,0.878624
1.65,-0.230765
1.651,0.781365
1.652,-0.262071
1.653,0.35431
1.654,0.415272
1.655,0.212982
1.656,0.0533867
1.657,0.804737
1.658,-0.189852
1.659,0.894562
1.66,0.173132
1.661,0.587421
1.662,-0.489028
1.663,0.227544
1.664,0.0877984
1.665,-0.00340314
1.666,-0.405276
1.667,-0.356687
1.668,-0.307626
1.669,-0.406945
1.67,0.431379
1.671,-0.0127381
1.672,-0.694836
1.673,0.522822
1.674,0.0184189
1.675,0.424741
1.676,-0.00402472
1.677,-0.0969801
1.678,0.434965
1.679,-0.421411
1.68,0.437536
1.681,0.696676
1.682,-0.111136
1.683,-0.422542
1.684,0.283533
1.685,-0.373755
1.686,0.584705
1.687,-0.193369
1.688,-0.226448
1.689,0.361894
1.69,0.804652
1.691,0.0393244
1.692,0.414287
1.693,-0.170749
1.694,0.594773
1.695,-0.223953
1.696,-0.362005
1.697,0.650668
1.698,-0.0672966
1.699,0.258926
1.7,0.106529
1.701,0.141842
1.702,-0.449416
1.703,0.864121
1.704,0.424369
1.705,0.0241403
1.706,0.508063
1.707,-0.378485
1.708,0.0481805
1.709,-0.136067
1.71,0.082125
1.711,-0.299933
1.712,0.464336
1.713,-0.475548
1.714,-0.424078
1.715,-0.514179
1.716,-0.183481
1.717,-0.112967
1.718,0.601402
1.719,-0.286647
1.72,0.139629
1.721,-0.0111804
1.722,-0.127053
1.723,-0.272118
1.724,-0.340554
1.725,-0.53683
1.726,0.0667577
1.727,-0.0524802
1.728,-0.155731
1.729,0.155504
1.73,-0.393753
1.731,0.403467
1.732,-0.0046183
1.733,0.0659693
1.734,-0.417906
1.735,-0.425498
1.736,-0.334035
1.737,0.232786
1.738,-0.0237475
1.739,-0.373346
1.74,-0.256289
1.741,0.00803876
1.742,0.128964
1.743,-0.211729
1.744,-0.0562449
1.745,-0.450721
1.746,-0.0730963
1.747,-0.251271
1.748,-0.315135
1.749,0.260201
1.75,-0.180176
1.751,0.120752
1.752,-0.930398
1.753,-0.0843549
1.754,0.11368
1.755,0.549902
1.756,-0.0535148
1.757,0.737294
1.758,-0.0146525
1.759,-0.0507402
1.76,0.652985
1.761,0.822737
1.762,1.14778
1.763,0.144077
1.764,0.540883
1.765,0.236126
1.766,0.59227
1.767,1.16383
1.768,1.15312
1.769,0.802803
1.77,0.746573
1.771,0.991297
1.772,0.83792
1.773,0.835844
1.774,0.807373
1.775,0.619051
1.776,0.881375
1.777,0.289779
1.778,0.646878
1.779,0.762661
1.78,-0.471013
1.781,0.68554
1.782,-0.378244
1.783,0.221047
1.784,0.231634
1.785,-0.136357
1.786,0.560253
1.787,0.144771
1.788,-0.173958
1.789,0.211273
1.79,-0.545483
1.791,-0.017951
1.792,-0.896212
1.793,-0.044156
1.794,-0.602378
1.795,0.0438357
1.796,0.0813751
1.797,-0.0552405
1.798,0.101348
1.799,0.131411
1.8,0.276747
1.801,0.0387418
1.802,-0.0528851
1.803,-0.0992643
1.804,0.246408
1.805,0.116548
1.806,-0.28575
1.807,0.139031
1.808,0.422052
1.809,-0.231462
1.81,0.435551
1.811,0.470913
1.812,0.118858
1.813,-0.169495
1.814,-0.0966863
1.815,0.509803
1.816,-0.317051
1.817,0.0479871
1.818,0.216707
1.819,-0.148965
1.82,0.145206
1.821,0.287571
1.822,-0.0477967
1.823,0.0734457
1.824,0.0773166
1.825,0.502078
1.826,0.224765
1.827,0.0125582
1.828,0.33026
1.829,0.026015
1.83,0.0697111
1.831,0.166354
1.832,-0.305706
1.833,0.243616
1.834,0.175422
1.835,0.527763
1.836,-0.632173
1.837,-0.0573577
1.838,0.630581
1.839,0.147184
1.84,0.402254
1.841,-0.104407
1.842,0.242985
1.843,0.578774
1.844,-0.54691
1.845,0.290485
1.846,0.327162
1.847,-0.23032
1.848,-0.403621
1.849,-0.438042
1.85,0.562959
1.851,-0.521153
1.852,0.507852
1.853,0.508087
1.854,-0.32368
1.855,-0.151387
1.856,0.664305
1.857,0.11533
1.858,-0.0398532
1.859,0.0215236
1.86,0.0954847
1.861,-0.0642786
1.862,-0.33551
1.863,-0.440966
1.864,-0.533859
1.865,-0.789988
1.866,0.0773277
1.867,0.375225
1.868,-0.192686
1.869,-0.302006
1.87,-0.056688
1.871,0.0956708
1.872,-0.0848648
1.873,0.0971763
1.874,1.21801
1.875,0.430711
1.876,0.143025
1.877,-0.0113696
1.878,0.143203
1.879,-0.301958
1.88,0.822657
1.881,-0.351139
1.882,0.360532
1.883,0.247222
1.884,0.344449
1.885,-0.279546
1.886,-0.469439
1.887,-0.0838063
1.888,0.343051
1.889,-0.0206167
1.89,0.456952
1.891,-0.0144206
1.892,0.116572
1.893,0.554588
1.894,0.246055
1.895,-0.274326
1.896,-0.00515869
1.897,-0.211631
1.898,0.0672184
1.899,-0.10299
1.9,-0.385827
1.901,0.273078
1.902,0.183835
1.903,0.539944
1.904,-0.259393
1.905,0.298829
1.906,0.461379
1.907,0.190026
1.908,-0.411478
1.909,-0.161724
1.91,0.0231259
1.911,0.0997882
1.912,0.0227519
1.913,0.012197
1.914,0.122865
1.915,0.501591
1.916,0.375477
1.917,0.211375
1.918,0.158572
1.919,0.580984
1.92,0.165636
1.921,0.202936
1.922,-0.207203
1.923,0.394798
1.924,-0.485296
1.925,-0.614755
1.926,-0.488402
1.927,0.187786
1.928,-0.0876016
1.929,-0.0811823
1.93,-0.56581
1.931,-0.28625
1.932,0.404317
1.933,0.12411
1.934,-0.318603
1.935,0.154934
1.936,0.843029
1.937,0.876445
1.938,0.0608184
1.939,0.0438447
1.94,0.424242
1.941,-0.207299
1.942,0.0614388
1.943,-0.260191
1.944,0.311308
1.945,0.0670253
1.946,0.219599
1.947,0.602172
1.948,0.327016
1.949,0.0891013
1.95,-0.0846803
1.951,0.495187
1.952,-0.497712
1.953,0.578817
1.954,0.260839
1.955,0.60903
1.956,0.250677
1.957,-0.142779
1.958,-0.0658316
1.959,0.174715
1.96,0.947932
1.961,-0.363263
1.962,0.169581
1.963,0.0520514
1.964,0.757545
1.965,0.550702
1.966,0.0552995
1.967,-0.0605165
1.968,-0.692844
1.969,-0.282093
1.97,-0.0339044
1.971,0.180847
1.972,0.459875
1.973,-0.17776
1.974,0.93353
1.975,0.309598
1.976,0.622315
1.977,1.19588
1.978,0.0301586
1.979,0.10927
1.98,0.120602
1.981,-0.0832605
1.982,-0.265641
1.983,-0.0812559
1.984,0.351687
1.985,0.265051
1.986,0.338208
1.987,0.0890936
1.988,-0.268318
1.989,0.11971
1.99,-0.0848166
1.991,-0.164384
1.992,0.307957
1.993,-0.051006
1.994,-0.0244722
1.995,0.381035
1.996,0.278549
1.997,-0.406428
1.998,-0.417141
1.999,-0.260304
2,-0.459892
2.001,-0.00406857
2.002,0.482122
2.003,0.296651
2.004,0.0474781
2.005,-0.444802
2.006,-0.56322
2.007,0.286274
2.008,-0.438855
2.009,0.0474046
2.01,0.420788
2.011,-0.207709
2.012,-0.60665
2.013,-0.537851
2.014,-0.201172
2.015,0.433524
2.016,-0.349868
2.017,-0.474809
2.018,-0.860044
2.019,0.329258
2.02,-0.192961
2.021,-0.11221
2.022,-0.496447
2.023,-0.10236
2.024,-0.070965
2.025,-0.0203491
2.026,-0.0775762
2.027,-0.446762
2.028,0.137436
2.029,-0.15509
2.03,-0.0788838
2.031,-0.251929
2.032,-0.145513
2.033,0.157922
2.034,0.0247029
2.035,-0.112928
2.036,-0.0366938
2.037,-0.343998
2.038,0.180876
2.039,-0.253003
2.04,0.781802
2.041,0.0123931
2.042,0.00464544
2.043,-0.3007
2.044,-0.119812
2.045,-0.0294903
2.046,0.620708
2.047,-0.278765
2.048,-0.268797
2.049,0.280465
2.05,0.327512
2.051,-0.167778
2.052,-0.31504
2.053,-0.0828389
2.054,0.150233
2.055,0.614147
2.056,0.771987
2.057,0.104526
2.058,-0.193222
2.059,0.139389
2.06,0.445151
2.061,-0.341791
2.062,-0.199332
2.063,0.524782
2.064,-0.233847
2.065,0.283899
2.066,-0.512773
2.067,0.272272
2.068,-0.231316
2.069,0.589342
2.07,-0.121696
2.071,0.00633081
2.072,0.803692
2.073,-0.131293
2.074,-0.350795
2.075,0.176436
2.076,0.168133
2.077,-0.377882
2.078,-0.0266988
2.079,0.30778
2.08,0.321015
2.081,0.186502
2.082,0.196815
2.083,0.263965
2.084,0.326974
2.085,0.0669061
2.086,0.415389
2.087,-0.377512
2.088,-0.0529297
2.089,-0.19639
2.09,-0.0272525
2.091,0.0111317
2.092,0.239148
2.093,0.00854683
2.094,0.090317
2.095,0.174673
2.096,-0.0532159
2.097,-0.448319
2.098,-0.175316
2.099,-0.220927
2.1,-0.200928
2.101,0.0309469
2.102,0.10853
2.103,-0.00359892
2.104,-0.221106
2.105,0.166777
2.106,-0.432601
2.107,-1.03843
2.108,-0.0264729
2.109,0.222671
2.11,-0.678595
2.111,-0.5093
2.112,-0.137367
2.113,0.156523
2.114,-0.53408
2.115,-0.557546
2.116,-0.0570313
2.117,0.276661
2.118,0.190856
2.119,-0.311969
2.12,0.103605
2.121,-0.0955131
2.122,0.258035
2.123,-0.300847
2.124,0.0157006
2.125,-0.724219
2.126,-0.340313
2.127,-0.0335944
2.128,-0.446034
2.129,0.125538
2.13,0.0114531
2.131,0.192753
2.132,-0.103715
2.133,1.00881
2.134,0.016448
2.135,-0.0233508
2.136,0.309113
2.137,0.0568586
2.138,-0.162761
2.139,-0.0597882
2.14,-0.699175
2.141,-0.210494
2.142,-0.514511
2.143,-0.158554
2.144,-0.481776
2.145,-0.144422
2.146,-0.764773
2.147,-0.137432
2.148,-0.391526
2.149,-0.210234
2.15,0.0959132
2.151,-0.383303
2.152,-0.24916
2.153,-0.576902
2.154,0.448574
2.155,-0.055609
2.156,-0.644659
2.157,-0.388739
2.158,-0.0343133
2.159,-0.131636
2.16,-0.0398154
2.161,-0.396823
2.162,-0.071681
2.163,0.5959
2.164,-0.321144
2.165,-0.175153
2.166,-0.34811
2.167,-0.171057
2.168,-0.099558
2.169,0.606749
2.17,-0.306026
2.171,0.623347
2.172,0.323325
2.173,0.422967
2.174,0.14863
2.175,-0.148416
2.176,0.364122
2.177,0.264168
2.178,0.821589
2.179,1.22256
2.18,0.852612
2.181,0.86254
2.182,0.929662
2.183,0.664306
2.184,0.738761
2.185,0.98931
2.186,1.09276
2.187,0.561801
2.188,0.526423
2.189,0.895372
2.19,0.502047
2.191,-0.0303552
2.192,0.0180713
2.193,0.375241
2.194,0.459516
2.195,0.684238
2.196,0.373
2.197,-0.0440834
2.198,0.459198
2.199,-0.199635
2.2,-0.038249
2.201,-0.121634
2.202,-0.159911
2.203,-0.516602
2.204,-0.152855
2.205,-0.455737
2.206,0.194824
2.207,-0.0830518
2.208,0.288465
2.209,0.306293
2.21,-0.129118
2.211,0.247094
2.212,0.140925
2.213,-0.364439
2.214,0.025522
2.215,0.2421
2.216,-0.191219
2.217,-0.628366
2.218,-0.177006
2.219,0.398256
2.22,0.521263
2.221,0.298729
2.222,-0.482999
2.223,0.365825
2.224,0.146528
2.225,0.421443
2.226,0.358274
2.227,0.274692
2.228,0.597999
2.229,0.38089
2.23,0.338093
2.231,0.314664
2.232,0.502282
2.233,-0.10656
2.234,-0.235055
2.235,0.537286
2.236,0.136003
2.237,0.153606
2.238,0.224155
2.239,-0.472308
2.24,0.552597
2.241,-0.933132
2.242,0.302815
2.243,0.0770238
2.244,0.422149
2.245,-0.188415
2.246,-0.183502
2.247,0.00384224
2.248,0.260916
2.249,0.0419834
2.25,0.178615
2.251,-0.0712669
2.252,0.548724
2.253,0.273841
2.254,-0.186879
2.255,0.145356
2.256,0.0971754
2.257,0.299118
2.258,-0.339151
2.259,-0.335269
2.26,-0.214535
2.261,-0.23106
2.262,0.282761
2.263,-0.484352
2.264,0.144243
2.265,0.0528227
2.266,-0.0764349
2.267,-0.61609
2.268,0.180725
2.269,-0.162302
2.27,-0.143205
2.271,-0.137363
2.272,0.20193
2.273,-0.478569
2.274,0.0964762
2.275,-0.945474
2.276,0.879397
2.277,0.0874258
2.278,-0.225733
2.279,-0.546626
2.28,0.279782
2.281,0.566607
2.282,-0.471067
2.283,0.208741
2.284,-0.0654903
2.285,0.602789
2.286,0.425433
2.287,0.244819
2.288,0.367024
2.289,-0.423142
2.29,0.155739
2.291,0.310531
2.292,0.220842
2.293,0.0782714
2.294,0.26712
2.295,0.28374
2.296,-0.53197
2.297,0.122609
2.298,-0.297404
2.299,0.415678
2.3,-0.313803
2.301,-0.299982
2.302,-0.281614
2.303,-0.026649
2.304,0.133107
2.305,0.123427
2.306,0.797135
2.307,-0.156149
2.308,0.012916
2.309,0.203466
2.31,0.146294
2.311,0.310293
2.312,-0.320041
2.313,0.0510562
2.314,0.222029
2.315,-0.399284
2.316,-0.23944
2.317,-0.609117
2.318,0.0334377
2.319,-0.590972
2.32,0.245502
2.321,-0.250777
2.322,-0.167889
2.323,0.0218264
2.324,-0.494018
2.325,-0.336956
2.326,-0.641812
2.327,0.405957
2.328,0.157265
2.329,-0.0668128
2.33,-0.0381887
2.331,0.0302567
2.332,0.517622
2.333,-0.0559734
2.334,0.239522
2.335,0.233808
2.336,-0.416922
2.337,0.109218
2.338,0.399956
2.339,-0.364613
2.34,0.269383
2.341,-0.850847
2.342,-0.275159
2.343,-0.309524
2.344,0.0819321
2.345,0.452988
2.346,-0.00571863
2.347,-0.275313
2.348,0.335623
2.349,0.134047
2.35,-0.116757
2.351,0.63053
2.352,0.830793
2.353,-0.169271
2.354,0.0214346
2.355,0.199766
2.356,0.777646
2.357,-0.0545092
2.358,0.254215
2.359,-0.085526
2.36,0.059077
2.361,0.655738
2.362,-0.196724
2.363,-0.253072
2.364,0.194552
2.365,-0.490339
2.366,-0.0388288
2.367,-0.00478144
2.368,-0.0233341
2.369,0.335553
2.37,-0.476406
2.371,0.0206817
2.372,0.40034
2.373,-0.300582
2.374,0.318255
2.375,0.254509
2.376,-0.312991
2.377,-0.180945
2.378,0.322916
2.379,0.100617
2.38,0.126258
2.381,0.461667
2.382,-0.58984
2.383,0.85199
2.384,-0.0338303
2.385,-0.252465
2.386,0.0803819
2.387,0.210346
2.388,0.0160404
2.389,-0.0215364
2.39,0.142762
2.391,0.455307
2.392,0.0143619
2.393,0.612062
2.394,0.245035
2.395,-0.268225
2.396,-0.166144
2.397,-0.0598548
2.398,0.173929
2.399,0.439148
2.4,0.861105
2.401,-0.112208
2.402,0.0316184
2.403,0.184021
2.404,0.0813708
2.405,-0.115051
2.406,-0.267711
2.407,0.242048
2.408,-0.395046
2.409,0.610428
2.41,0.670728
2.411,0.281223
2.412,0.00955794
2.413,0.242386
2.414,-0.143482
2.415,0.170926
2.416,0.124711
2.417,-0.214277
2.418,-0.193949
2.419,-0.153744
2.42,-0.0647849
2.421,0.0509778
2.422,-0.710189
2.423,0.12069
2.424,-0.35426
2.425,-0.0417913
2.426,-0.0912428
2.427,-0.203581
2.428,-0.113882
2.429,-0.503404
2.43,-0.472627
2.431,0.10702
2.432,0.119914
2.433,-0.210587
2.434,-0.252906
2.435,-0.41436
2.436,0.909282
2.437,-0.211656
2.438,0.0485019
2.439,0.0421652
2.44,-0.190761
2.441,-0.160983
2.442,0.799396
2.443,0.0813222
2.444,0.23575
2.445,0.0021875
2.446,0.144093
2.447,0.101748
2.448,-0.386055
2.449,-0.214741
2.45,-0.0276198
2.451,-0.0725465
2.452,-0.148175
2.453,-0.405872
2.454,0.509955
2.455,-0.0939232
2.456,-0.231758
2.457,-0.0852308
2.458,0.221504
2.459,-0.51394
2.46,-0.30576
2.461,0.338909
2.462,0.242012
2.463,0.206433
2.464,0.302723
2.465,-0.900008
2.466,0.133813
2.467,0.472622
2.468,-0.401134
2.469,-0.182598
2.47,0.0329027
2.471,-0.181955
2.472,0.154894
2.473,-0.877434
2.474,-0.635035
2.475,0.146592
2.476,0.477406
2.477,0.507093
2.478,0.493059
2.479,-0.345544
2.48,-0.569066
2.481,-0.457054
2.482,0.0328822
2.483,0.207939
2.484,0.0278244
2.485,0.310089
2.486,-0.183263
2.487,0.315247
2.488,-0.555465
2.489,-0.531262
2.49,-0.126457
2.491,0.0440794
2.492,1.12848
2.493,-0.188164
2.494,-0.140523
2.495,-0.0989882
2.496,-0.230482
2.497,-0.421595
2.498,0.0136803
2.499,-0.182387
2.5,0.555932
2.501,0.300634
2.502,0.472016
2.503,-0.520319
2.504,0.0590557
2.505,-0.641953
2.506,0.363745
2.507,-0.620722
2.508,-0.326407
2.509,-0.0955562
2.51,-0.102355
2.511,-0.290999
2.512,-0.39939
2.513,-0.26958
2.514,-0.186901
2.515,1.09579
2.516,-0.506795
2.517,0.422505
2.518,-0.400157
2.519,-0.489312
2.52,-0.184127
2.521,-0.199603
2.522,-0.0342058
2.523,0.461104
2.524,0.198374
2.525,-0.123258
2.526,-0.0123726
2.527,0.38632
2.528,0.264851
2.529,-0.228985
2.53,-0.236617
2.531,0.444609
2.532,-0.196586
2.533,-0.0213093
2.534,-0.224206
2.535,0.699585
2.536,0.00688264
2.537,0.0180038
2.538,-0.31349
2.539,0.0171335
2.54,-0.114062
2.541,-0.332124
2.542,-0.552406
2.543,0.0250154
2.544,0.475688
2.545,0.449877
2.546,0.00199555
2.547,0.157318
2.548,-0.0570248
2.549,-0.33168
2.55,-0.50112
2.551,0.227861
2.552,0.411216
2.553,-0.452933
2.554,-0.0984388
2.555,0.142748
2.556,-0.248911
2.557,0.148363
2.558,0.215045
2.559,0.147171
2.56,0.398297
2.561,0.464748
2.562,0.0361399
2.563,0.48384
2.564,-0.0354007
2.565,0.142676
2.566,0.427716
2.567,0.182709
2.568,-0.270779
2.569,0.13232
2.57,-0.213461
2.571,-0.242462
2.572,0.13428
2.573,-0.654403
2.574,-0.00437804
2.575,0.344569
2.576,-0.0949128
2.577,-0.597905
2.578,-0.0347514
2.579,0.411818
2.58,0.236807
2.581,0.121145
2.582,-0.357455
2.583,-0.301667
2.584,-0.00829262
2.585,0.746681
2.586,-0.330023
2.587,0.127775
2.588,-0.00770658
2.589,-0.643215
2.59,0.696602
2.591,-0.200445
2.592,0.227873
2.593,0.243552
2.594,0.0672253
2.595,0.159595
2.596,-0.287281
2.597,-0.213689
2.598,0.149173
2.599,-0.111786
2.6,0.191367
2.601,0.52211
2.602,-0.389122
2.603,0.526372
2.604,-0.0535788
2.605,0.768291
2.606,0.106864
2.607,0.413102
2.608,0.0143314
2.609,0.0173564
2.61,-0.260634
2.611,-0.188709
2.612,-0.242743
2.613,-0.446474
2.614,-1.00875
2.615,-0.322596
2.616,-0.352823
2.617,0.49124
2.618,-0.670083
2.619,-0.340066
2.62,0.193996
2.621,0.509916
2.622,-0.154128
2.623,-0.497135
2.624,0.212062
2.625,0.163769
2.626,-0.144851
2.627,-0.0205566
2.628,0.166208
2.629,-0.110443
2.63,0.27197
2.631,0.428626
2.632,0.247694
2.633,-0.249016
2.634,0.806955
2.635,-0.0305567
2.636,0.0927117
2.637,0.142858
2.638,0.281831
2.639,-0.233012
2.64,-0.0658249
2.641,0.368018
2.642,0.226357
2.643,0.340916
2.644,0.600615
2.645,-0.364181
2.646,-0.345639
2.647,0.149521
2.648,0.283233
2.649,0.0804486
2.65,0.209086
2.651,-0.218906
2.652,-0.238345
2.653,-0.0133619
2.654,-0.121749
2.655,0.0304368
2.656,0.122344
2.657,-0.430281
2.658,-0.0214617
2.659,0.708466
2.66,-0.222336
2.661,-0.500765
2.662,0.150489
2.663,0.00295085
2.664,-0.344662
2.665,0.877768
2.666,-0.0335942
2.667,0.297049
2.668,-0.205543
2.669,-0.56938
2.67,-0.192933
2.671,-0.121366
2.672,0.354897
2.673,-0.245208
2.674,-0.0836879
2.675,0.281222
2.676,0.0776849
2.677,-0.222346
2.678,-0.50659
2.679,0.375096
2.68,0.380603
2.681,0.387591
2.682,0.354674
2.683,0.342766
2.684,0.287794
2.685,-0.358952
2.686,-0.173139
2.687,0.180419
2.688,0.566102
2.689,0.226099
2.69,-0.299671
2.691,0.316973
2.692,0.525438
2.693,-0.167401
2.694,-0.337848
2.695,-0.184612
2.696,0.298103
2.697,0.456594
2.698,0.148332
2.699,-0.512682
2.7,-0.0940773
2.701,-0.444707
2.702,0.715712
2.703,0.414333
2.704,0.0227153
2.705,-0.0571056
2.706,-0.402935
2.707,-0.139271
2.708,-0.509205
2.709,0.276906
2.71,0.0356918
2.711,-0.383725
2.712,-0.361029
2.713,-0.235403
2.714,-0.0756252
2.715,-0.198897
2.716,-0.25816
2.717,0.134176
2.718,-0.493084
2.719,-0.0222426
2.72,0.595271
2.721,0.144997
2.722,-0.344004
2.723,-0.602548
2.724,-0.189919
2.725,0.198962
2.726,-0.494471
2.727,0.338778
2.728,-0.388998
2.729,-0.774453
2.73,0.409788
2.731,0.490595
2.732,-0.599925
2.733,-0.212138
2.734,0.507756
2.735,-0.321915
2.736,-0.389102
2.737,0.160599
2.738,0.458852
2.739,-0.419489
2.74,-0.00228401
2.741,0.174851
2.742,-0.63902
2.743,-0.439428
2.744,0.756964
2.745,-0.268846
2.746,-0.450062
2.747,0.0684393
2.748,-0.0782067
2.749,-0.579987
2.75,0.0942122
2.751,-0.180835
2.752,-0.238645
2.753,0.388783
2.754,-0.777006
2.755,0.23416
2.756,0.243504
2.757,0.492748
2.758,-0.673295
2.759,-0.351109
2.76,-0.562933
2.761,0.400736
2.762,0.399548
2.763,-0.124982
2.764,-0.526466
2.765,-0.733452
2.766,-0.238006
2.767,-0.488635
2.768,-0.539598
2.769,-0.704427
2.77,-0.832078
2.771,-0.425641
2.772,-0.393653
2.773,-0.395462
2.774,-0.100102
2.775,-0.162869
2.776,-0.195652
2.777,-0.289748
2.778,-0.393886
2.779,0.0353735
2.78,-0.00415141
2.781,-0.567944
2.782,0.239556
2.783,-0.763564
2.784,-0.0500164
2.785,0.0428788
2.786,0.599688
2.787,-0.043357
2.788,-0.324957
2.789,0.356216
2.79,-0.555823
2.791,0.361713
2.792,1.03331
2.793,0.638693
2.794,0.390198
2.795,1.12082
2.796,1.35239
2.797,0.998217
2.798,0.580404
2.799,0.863089
2.8,1.7728
2.801,1.04361
2.802,0.994236
2.803,0.977454
2.804,0.572605
2.805,0.446385
2.806,0.902671
2.807,0.48887
2.808,0.460042
2.809,0.712451
2.81,0.715841
2.811,0.0627565
2.812,0.558824
2.813,0.0715138
2.814,0.269129
2.815,0.641953
2.816,0.13551
2.817,0.013324
2.818,0.166955
2.819,-0.0168922
2.82,-0.0706873
2.821,0.139512
2.822,0.618724
2.823,-0.0909088
2.824,-0.469603
2.825,-0.029467
2.826,-0.260486
2.827,-0.476855
2.828,0.437445
2.829,-0.623954
2.83,0.0873026
2.831,-0.0280915
2.832,-0.368999
2.833,-0.183627
2.834,-0.693263
2.835,0.0965589
2.836,0.49386
2.837,-0.448563
2.838,-0.543657
2.839,0.0870625
2.84,0.34418
2.841,0.336426
2.842,-0.0494175
2.843,-0.239283
2.844,-0.021655
2.845,0.00906924
2.846,0.915851
2.847,-0.0166743
2.848,-0.246078
2.849,0.145329
2.85,0.561879
2.851,0.448714
2.852,0.220924
2.853,0.0662366
2.854,0.289317
2.855,-0.365004
2.856,-0.0392253
2.857,0.262839
2.858,1.06851
2.859,-0.301955
2.86,-0.0237829
2.861,-0.920499
2.862,0.0222825
2.863,-0.359821
2.864,0.415733
2.865,0.214659
2.866,-0.753639
2.867,-0.330233
2.868,0.684482
2.869,-0.0621242
2.87,0.0690381
2.871,0.452987
2.872,0.540348
2.873,-0.0633721
2.874,-0.220781
2.875,0.0820117
2.876,-0.0969631
2.877,-0.626112
2.878,0.183552
2.879,-0.168988
2.88,0.128871
2.881,0.14047
2.882,0.260533
2.883,0.0895924
2.884,-0.178695
2.885,-0.554381
2.886,-0.266542
2.887,-0.129923
2.888,0.270547
2.889,0.301081
2.89,-0.255428
2.891,-0.579833
2.892,-0.288189
2.893,0.0609739
2.894,0.152866
2.895,0.0355391
2.896,-0.155314
2.897,0.118609
2.898,-0.135803
2.899,0.0709741
2.9,0.539474
2.901,0.21013
2.902,0.0942937
2.903,-0.0828331
2.904,0.309617
2.905,0.719946
2.906,0.446606
2.907,0.0716868
2.908,-0.121726
2.909,-0.290009
2.91,-0.0833341
2.911,-0.17759
2.912,-0.0476328
2.913,0.0646392
2.914,-0.326448
2.915,-0.345449
2.916,-0.144512
2.917,-0.211336
2.918,0.0178595
2.919,0.0201687
2.92,0.513647
2.921,0.401535
2.922,-0.026923
2.923,0.499178
2.924,-0.304924
2.925,0.109498
2.926,-0.0244557
2.927,0.763997
2.928,0.609256
2.929,-0.340248
2.93,-0.0315297
2.931,-0.250319
2.932,0.0753699
2.933,0.246371
2.934,-0.702278
2.935,-0.391542
2.936,0.289672
2.937,0.554159
2.938,0.171801
2.939,0.274428
2.94,-0.0771777
2.941,0.496624
2.942,0.32967
2.943,0.17817
2.944,-0.240909
2.945,0.382035
2.946,0.469842
2.947,0.346936
2.948,0.512026
2.949,-0.0787448
2.95,0.350854
2.951,-0.114601
2.952,0.40011
2.953,-0.548253
2.954,0.334148
2.955,0.114818
2.956,-0.33515
2.957,0.453947
2.958,-0.0432527
2.959,0.805881
2.96,-0.115037
2.961,0.57747
2.962,0.551992
2.963,-0.10627
2.964,1.14123
2.965,0.757486
2.966,0.0981412
2.967,-0.0994531
2.968,-0.282125
2.969,0.738648
2.97,-0.193591
2.971,1.00568
2.972,0.114251
2.973,0.534155
2.974,0.674434
2.975,-0.30173
2.976,0.200054
2.977,0.342652
2.978,0.0134057
2.979,-0.608424
2.98,-0.15404
2.981,0.707127
2.982,-0.581171
2.983,-0.470019
2.984,0.31075
2.985,0.18891
2.986,0.171841
2.987,0.0161729
2.988,0.279077
2.989,0.490493
2.99,-0.0590147
2.991,0.70886
2.992,0.074349
2.993,0.17062
2.994,0.315555
2.995,-0.186524
2.996,0.492676
2.997,0.347571
2.998,0.232526
2.999,-0.229237
3,0.459831
3.001,-0.00970478
3.002,0.45055
3.003,-0.659217
3.004,-0.0818392
3.005,0.182744
3.006,0.33614
3.007,0.104823
3.008,0.777064
3.009,0.864602
3.01,0.0757617
3.011,0.390589
3.012,0.0839159
3.013,0.391013
3.014,-0.397466
3.015,-0.296768
3.016,0.469315
3.017,0.432504
3.018,-0.120827
3.019,0.18647
3.02,-0.0923844
3.021,-0.16716
3.022,-0.0152057
3.023,-0.174529
3.024,-0.693003
3.025,-0.00555412
3.026,0.225384
3.027,0.180226
3.028,0.106847
3.029,-0.0936811
3.03,-0.160534
3.031,0.495297
3.032,0.122937
3.033,-0.25011
3.034,-0.0872321
3.035,0.276529
3.036,-0.214852
3.037,-0.388488
3.038,-0.349889
3.039,0.390526
3.04,0.141634
3.041,-0.0171532
3.042,0.306201
3.043,0.0407172
3.044,-0.0784443
3.045,-0.610845
3.046,0.134339
3.047,-0.107771
3.048,0.0776339
3.049,1.01564
3.05,-0.353534
3.051,0.420273
3.052,0.227822
3.053,-0.39279
3.054,0.379531
3.055,0.501018
3.056,0.0905552
3.057,0.208112
3.058,-0.474625
3.059,0.426162
3.06,-0.0942867
3.061,-0.968693
3.062,0.218812
3.063,0.36659
3.064,0.639536
3.065,-0.656959
3.066,-0.753946
3.067,0.0340476
3.068,-0.0601051
3.069,0.285495
3.07,0.536657
3.071,0.382899
3.072,0.223642
3.073,0.659259
3.074,-0.274754
3.075,-0.686552
3.076,0.227341
3.077,-0.249909
3.078,-0.0822587
3.079,0.115361
3.08,0.00584327
3.081,-0.114125
3.082,-0.518063
3.083,0.0143649
3.084,-0.467521
3.085,0.405107
3.086,0.182246
3.087,-0.651992
3.088,0.449098
3.089,0.368482
3.09,-0.502157
3.091,-0.354563
3.092,-0.0224057
3.093,-0.167893
3.094,0.0639659
3.095,0.137777
3.096,0.229013
3.097,-0.503428
3.098,0.544705
3.099,-0.243146
3.1,0.57907
3.101,0.336696
3.102,0.0474147
3.103,0.0612297
3.104,-0.309593
3.105,-0.184046
3.106,-0.584642
3.107,-0.238737
3.108,-0.359801
3.109,0.0090157
3.11,0.160724
3.111,-0.527251
3.112,-0.12208
3.113,-0.499867
3.114,0.0152126
3.115,0.145499
3.116,0.128322
3.117,0.390751
3.118,-0.102819
3.119,0.111484
3.12,-0.295034
3.121,-0.632454
3.122,-0.108635
3.123,-0.812151
3.124,0.64702
3.125,0.278327
3.126,-0.598657
3.127,0.128927
3.128,-0.110344
3.129,0.605721
3.13,0.011581
3.131,0.431124
3.132,-0.0360788
3.133,-0.162637
3.134,-0.225832
3.135,-0.62142
3.136,-0.116751
3.137,0.056078
3.138,-0.0149259
3.139,0.513917
3.14,-0.220892
3.141,-0.213429
3.142,-0.380354
3.143,0.100977
3.144,-0.257911
3.145,-0.342667
3.146,0.414474
3.147,-0.10599
3.148,0.138329
3.149,-0.493851
3.15,-0.297161
3.151,-0.706573
3.152,0.30783
3.153,-0.601208
3.154,0.0254166
3.155,-0.875368
3.156,-0.218023
3.157,0.419494
3.158,0.0913327
3.159,0.515568
3.16,0.124127
3.161,-0.641241
3.162,-0.0795922
3.163,-0.384808
3.164,-0.108832
3.165,-0.0325194
3.166,0.0690836
3.167,-0.0805312
3.168,0.0390731
3.169,-0.0592568
3.17,0.0104624
3.171,-0.305185
3.172,-0.68024
3.173,0.28024
3.174,-0.0731217
3.175,0.116735
3.176,0.0753128
3.177,0.608383
3.178,0.31844
3.179,-0.0455005
3.18,-0.174773
3.181,0.115353
3.182,0.198082
3.183,0.12406
3.184,0.444552
3.185,0.467716
3.186,0.188351
3.187,0.16787
3.188,-0.275033
3.189,0.362465
3.19,0.302803
3.191,0.709982
3.192,0.416986
3.193,0.11914
3.194,-0.398065
3.195,-0.122153
3.196,0.753096
3.197,0.552883
3.198,0.090039
3.199,0.0194625
3.2,-0.115188
3.201,0.0476249
3.202,0.107166
3.203,-0.661766
3.204,0.319681
3.205,-0.556016
3.206,-0.470677
3.207,-0.0369544
3.208,0.160951
3.209,-0.565319
3.21,-0.649903
3.211,0.596121
3.212,0.252416
3.213,0.547158
3.214,-0.0352189
3.215,-0.095731
3.216,-0.139627
3.217,0.049516
3.218,0.0658885
3.219,0.352962
3.22,0.113613
3.221,0.0771279
3.222,-0.167734
3.223,-0.273566
3.224,-0.212794
3.225,-0.161961
3.226,0.18241
3.227,0.173144
3.228,0.016168
3.229,-0.233448
3.23,-0.723002
3.231,0.180816
3.232,0.701744
3.233,-0.858783
3.234,-0.157183
3.235,0.305476
3.236,0.174597
3.237,-0.126916
3.238,0.0569546
3.239,0.120754
3.24,0.259514
3.241,-0.029869
3.242,-0.0484522
3.243,-0.192822
3.244,-0.215112
3.245,-0.485626
3.246,0.209454
3.247,0.135573
3.248,0.170837
3.249,-0.521868
3.25,-0.0661493
3.251,-0.276288
3.252,0.0182391
3.253,0.924164
3.254,-0.0132565
3.255,-0.045741
3.256,0.426273
3.257,0.370512
3.258,-0.213269
3.259,0.541426
3.26,0.516313
3.261,-0.381876
3.262,0.0174988
3.263,0.191834
3.264,-0.128258
3.265,-0.0418749
3.266,0.260914
3.267,-0.463717
3.268,-0.167779
3.269,0.0923098
3.27,-0.330703
3.271,0.553821
3.272,0.165551
3.273,0.391126
3.274,0.00872813
3.275,-0.465738
3.276,0.693071
3.277,0.191285
3.278,0.0534603
3.279,0.398475
3.28,0.974041
3.281,0.0386089
3.282,0.11056
3.283,0.722343
3.284,0.0818308
3.285,-0.82147
3.286,0.0924892
3.287,0.0126154
3.288,-0.193945
3.289,-0.834657
3.29,0.206109
3.291,0.388575
3.292,0.234605
3.293,-0.648429
3.294,-0.430864
3.295,0.193921
3.296,-0.305416
3.297,-0.381539
3.298,-1.01064
3.299,-0.726901
3.3,-0.822828
3.301,-0.44856
3.302,-0.0566202
3.303,-0.0071997
3.304,0.101571
3.305,-0.423583
3.306,-0.214618
3.307,-0.369387
3.308,-1.14944
3.309,-0.687181
3.31,-0.559551
3.311,0.0433231
3.312,-0.0360226
3.313,-0.517021
3.314,-0.0631063
3.315,0.0929497
3.316,-0.207652
3.317,-0.0917217
3.318,0.178145
3.319,-0.143187
3.32,0.850124
3.321,0.963025
3.322,0.675027
3.323,0.134215
3.324,0.629144
3.325,0.873196
3.326,0.942636
3.327,0.572635
3.328,1.09856
3.329,0.61528
3.33,0.920012
3.331,1.1722
3.332,1.30763
3.333,0.622424
3.334,0.892016
3.335,0.722677
3.336,0.679278
3.337,1.24331
3.338,0.876454
3.339,1.37867
3.34,0.166463
3.341,0.223733
3.342,-0.167638
3.343,0.0820335
3.344,0.085196
3.345,0.330605
3.346,0.080469
3.347,0.170203
3.348,-0.523707
3.349,-0.423404
3.35,-0.144849
3.351,-0.100394
3.352,-0.202401
3.353,0.476128
3.354,-0.421878
3.355,-0.290402
3.356,-0.453953
3.357,-0.248194
3.358,-0.260589
3.359,-0.0291712
3.36,-0.592475
3.361,-0.185466
3.362,0.249858
3.363,0.245682
3.364,-0.548976
3.365,-0.35906
3.366,-0.209556
3.367,0.0702075
3.368,-0.274505
3.369,0.0579793
3.37,-0.302735
3.371,0.434991
3.372,-0.0304527
3.373,0.32645
3.374,-0.511816
3.375,-0.206628
3.376,-0.117525
3.377,0.262959
3.378,0.263627
3.379,0.734727
3.38,-0.157925
3.381,0.29612
3.382,0.173676
3.383,0.1394
3.384,0.32449
3.385,-0.244737
3.386,-0.215222
3.387,0.0115529
3.388,0.303027
3.389,-0.21573
3.39,-0.0409249
3.391,0.045093
3.392,0.20973
3.393,-0.188308
3.394,0.650197
3.395,0.532858
3.396,-0.439958
3.397,0.222602
3.398,-0.0810708
3.399,0.150777
3.4,-0.00779963
3.401,0.0657133
3.402,-0.299497
3.403,0.396853
3.404,-0.620436
3.405,0.0648957
3.406,0.00492761
3.407,0.440671
3.408,0.00234041
3.409,0.337793
3.41,-0.075772
3.411,-0.280997
3.412,0.389814
3.413,-0.0968137
3.414,0.0184777
3.415,0.102222
3.416,0.163444
3.417,0.0844172
3.418,-0.0933324
3.419,-0.242395
3.42,0.155124
3.421,0.499907
3.422,-0.174556
3.423,-0.00393491
3.424,0.367882
3.425,0.0826424
3.426,0.116332
3.427,-0.17627
3.428,0.109978
3.429,0.251476
3.43,-0.315468
3.431,0.830544
3.432,-0.330207
3.433,0.284084
3.434,-0.138369
3.435,-0.199613
3.436,-0.0764446
3.437,-0.238395
3.438,0.00695292
3.439,-0.192544
3.44,0.389832
3.441,0.505545
3.442,0.335814
3.443,0.543345
3.444,-0.327134
3.445,-0.273508
3.446,-0.256327
3.447,-0.00966607
3.448,-0.214465
3.449,0.255633
3.45,0.814018
3.451,0.205942
3.452,-0.0757609
3.453,-0.560764
3.454,-0.211166
3.455,1.02612
3.456,-0.128133
3.457,0.207294
3.458,0.525396
3.459,0.198159
3.46,-0.084828
3.461,-0.162717
3.462,0.454335
3.463,-0.158846
3.464,-0.0932835
3.465,-0.0323566
3.466,0.631879
3.467,0.364075
3.468,-0.285947
3.469,-0.124425
3.47,0.420059
3.471,0.417277
3.472,-0.736592
3.473,0.471473
3.474,0.219881
3.475,0.0715671
3.476,0.413902
3.477,-0.604966
3.478,-0.069817
3.479,-0.387199
3.48,0.259624
3.481,0.0480631
3.482,0.105678
3.483,-0.186353
3.484,0.419357
3.485,-0.392133
3.486,-0.126471
3.487,0.248107
3.488,0.442342
3.489,0.164687
3.49,0.362481
3.491,-0.249261
3.492,-0.380021
3.493,-0.28074
3.494,0.145324
3.495,0.504461
3.496,-0.0611334
3.497,0.0544437
3.498,-0.167644
3.499,-0.242
3.5,0.50719
3.501,-0.236533
3.502,0.755904
3.503,-0.237665
3.504,0.104318
3.505,-0.172557
3.506,0.500935
3.507,0.153425
3.508,0.738347
3.509,-0.330759
3.51,0.164528
3.511,0.459894
3.512,0.711151
3.513,0.227681
3.514,-0.204434
3.515,0.612017
3.516,0.51651
3.517,0.232309
3.518,0.155761
3.519,0.901783
3.52,-0.381685
3.521,-0.136732
3.522,0.152539
3.523,-0.00307495
3.524,-0.147951
3.525,-0.170172
3.526,0.505329
3.527,-0.0642074
3.528,0.119019
3.529,0.351104
3.53,0.36204
3.531,-0.139734
3.532,-0.380946
3.533,0.0666373
3.534,0.0664039
3.535,0.568648
3.536,-0.112763
3.537,-0.0416822
3.538,-0.135804
3.539,-0.226659
3.54,-0.241442
3.541,-0.0156261
3.542,-0.294026
3.543,0.266744
3.544,0.223161
3.545,-0.461185
3.546,0.599543
3.547,-0.0272811
3.548,0.287061
3.549,0.168428
3.55,-0.173435
3.551,0.261601
3.552,0.501464
3.553,0.256885
3.554,-0.145626
3.555,-0.0479511
3.556,0.87381
3.557,0.406774
3.558,0.062424
3.559,-0.444144
3.56,0.375255
3.561,-0.205739
3.562,0.405283
3.563,0.107415
3.564,-0.650139
3.565,0.34363
3.566,0.290987
3.567,0.238156
3.568,-0.510974
3.569,-0.352623
3.57,0.410135
3.571,0.25504
3.572,-0.111274
3.573,-0.08466
3.574,0.0645606
3.575,0.132793
3.576,-0.117106
3.577,-0.533371
3.578,-0.148226
3.579,0.624434
3.58,-0.291498
3.581,-0.2288
3.582,-0.5771
3.583,-0.0234275
3.584,-0.239362
3.585,0.0768309
3.586,0.0720441
3.587,-0.0205148
3.588,0.205574
3.589,0.00656997
3.59,0.0700166
3.591,-0.24685
3.592,0.391943
3.593,0.00455911
3.594,0.295422
3.595,-0.0553801
3.596,0.00623424
3.597,-0.792082
3.598,-0.00622936
3.599,-0.281487
3.6,-0.560325
3.601,-0.0664477
3.602,0.145055
3.603,-0.159907
3.604,-0.409345
3.605,0.319777
3.606,0.665366
3.607,0.348539
3.608,-0.183998
3.609,0.345768
3.61,-0.438607
3.611,-0.100717
3.612,0.49222
3.613,-0.269098
3.614,-0.108699
3.615,0.180661
3.616,0.33927
3.617,-0.134525
3.618,-0.372771
3.619,-0.110889
3.62,0.439738
3.621,0.0945034
3.622,0.453412
3.623,-0.191072
3.624,-0.448046
3.625,-0.0529411
3.626,-0.313972
3.627,0.0234525
3.628,0.0310822
3.629,-0.351623
3.63,-0.207992
3.631,-0.426152
3.632,-0.044059
3.633,-0.224519
3.634,0.0765081
3.635,0.363318
3.636,-0.00479298
3.637,-0.670617
3.638,0.338706
3.639,0.656758
3.64,-0.300914
3.641,-0.0498402
3.642,0.199593
3.643,-0.154903
3.644,0.102741
3.645,0.438753
3.646,-0.63784
3.647,-0.0757765
3.648,-0.203442
3.649,0.812646
3.65,0.0720104
3.651,-0.231792
3.652,0.139546
3.653,0.13736
3.654,0.211329
3.655,0.643878
3.656,0.388101
3.657,0.490423
3.658,-0.308898
3.659,-0.463725
3.66,-0.365548
3.661,-0.382677
3.662,0.111102
3.663,0.162572
3.664,0.00691932
3.665,-0.405597
3.666,-0.146413
3.667,0.291355
3.668,0.179398
3.669,-0.103201
3.67,0.218952
3.671,-0.373259
3.672,-0.535416
3.673,0.01467
3.674,-0.309293
3.675,-0.0326053
3.676,0.228795
3.677,0.0988703
3.678,0.0114416
3.679,-0.0437466
3.68,-0.180295
3.681,0.130074
3.682,-0.0899831
3.683,-0.125336
3.684,0.919803
3.685,-0.461029
3.686,-0.223995
3.687,-0.135632
3.688,0.440518
3.689,0.10629
3.69,0.336663
3.691,-0.105834
3.692,0.415017
3.693,0.119535
3.694,0.386691
3.695,0.253172
3.696,0.0822847
3.697,-0.0648393
3.698,-0.487451
3.699,0.0694667
3.7,0.0598409
3.701,0.120874
3.702,-0.0696285
3.703,0.0407565
3.704,-0.209262
3.705,0.202725
3.706,-0.642208
3.707,0.518892
3.708,-0.341058
3.709,-0.258979
3.71,0.203596
3.711,0.583639
3.712,0.48079
3.713,-0.231974
3.714,0.359933
3.715,0.329144
3.716,0.1797
3.717,0.289971
3.718,0.531123
3.719,-0.0394349
3.72,-0.184948
3.721,-0.154094
3.722,-0.657263
3.723,-0.196021
3.724,-0.143418
3.725,0.108931
3.726,0.425558
3.727,0.180357
3.728,-0.156798
3.729,0.0943943
3.73,0.0792593
3.731,-0.34986
3.732,0.43917
3.733,-0.384323
3.734,0.304746
3.735,-0.50688
3.736,-0.457531
3.737,0.227216
3.738,0.035117
3.739,-0.0682729
3.74,0.408755
3.741,-0.200566
3.742,0.296482
3.743,0.506582
3.744,0.318773
3.745,-0.293584
3.746,-0.0911291
3.747,0.233485
3.748,0.444827
3.749,0.118861
3.75,0.291033
3.751,0.189609
3.752,-0.196244
3.753,0.0518773
3.754,0.0324717
3.755,0.192278
3.756,0.42994
3.757,0.161403
3.758,0.756184
3.759,0.347168
3.76,-0.0666339
3.761,0.140642
3.762,0.770947
3.763,0.122265
3.764,0.168182
3.765,0.104797
3.766,-0.11886
3.767,-0.226177
3.768,-0.0691855
3.769,-0.551813
3.77,0.276893
3.771,0.167563
3.772,-0.156613
3.773,-0.230515
3.774,0.359051
3.775,0.0434974
3.776,0.225816
3.777,-0.425383
3.778,-0.480981
3.779,-0.0925675
3.78,-0.602836
3.781,0.144955
3.782,-0.306967
3.783,-0.265316
3.784,-0.869511
3.785,-0.17683
3.786,-0.819203
3.787,-0.81762
3.788,-0.14412
3.789,-0.165325
3.79,-0.0662131
3.791,-0.370509
3.792,-0.312519
3.793,-0.210584
3.794,-0.222933
3.795,-0.341284
3.796,-0.145821
3.797,-0.101329
3.798,0.021353
3.799,-0.437549
3.8,0.420476
3.801,0.285103
3.802,0.503317
3.803,0.478878
3.804,0.6289
3.805,0.268264
3.806,0.623142
3.807,0.719217
3.808,1.00686
3.809,1.17928
3.81,0.994656
3.811,0.881649
3.812,0.776699
3.813,0.971615
3.814,0.582812
3.815,1.10512
3.816,0.509977
3.817,0.982604
3.818,0.927385
3.819,0.734768
3.82,1.06848
3.821,0.71164
3.822,0.609551
3.823,0.418073
3.824,-0.136507
3.825,0.221647
3.826,-0.0998202
3.827,0.328113
3.828,0.415805
3.829,0.616116
3.83,0.412387
3.831,-0.298929
3.832,0.297324
3.833,0.0584067
3.834,-0.460223
3.835,-0.534495
3.836,-0.20081
3.837,0.137876
3.838,0.157968
3.839,0.37129
3.84,0.218184
3.841,-0.26716
3.842,0.106883
3.843,-0.221649
3.844,0.116354
3.845,-0.548539
3.846,0.261779
3.847,-0.706452
3.848,0.00058911
3.849,0.486259
3.85,-0.392575
3.851,-0.480169
3.852,0.484295
3.853,0.177589
3.854,-0.526393
3.855,0.621661
3.856,0.191774
3.857,0.174194
3.858,0.559758
3.859,0.668346
3.86,-0.547453
3.861,0.0235453
3.862,-0.119127
3.863,0.058293
3.864,-0.264776
3.865,-0.705261
3.866,-0.0122224
3.867,0.719004
3.868,0.84087
3.869,0.356353
3.87,-0.59165
3.871,-0.5128
3.872,-0.354812
3.873,-0.661714
3.874,0.262675
3.875,0.102573
3.876,-0.096314
3.877,0.173272
3.878,0.343812
3.879,-0.364982
3.88,-0.391491
3.881,-0.224333
3.882,-0.0716901
3.883,-0.21619
3.884,0.256625
3.885,-0.250116
3.886,0.370185
3.887,0.639933
3.888,0.0284884
3.889,-0.0409515
3.89,-0.303572
3.891,-0.404539
3.892,0.284176
3.893,-0.329628
3.894,0.0908897
3.895,0.0127831
3.896,-0.352065
3.897,0.746277
3.898,-0.257748
3.899,0.228782
3.9,1.02058
3.901,0.248566
3.902,-0.422389
3.903,-0.318357
3.904,0.0910721
3.905,0.319301
3.906,-0.0972858
3.907,0.159471
3.908,0.100671
3.909,-0.730164
3.91,0.573769
3.911,-0.111109
3.912,-0.194552
3.913,0.508012
3.914,0.00648991
3.915,-0.0396157
3.916,0.194046
3.917,-0.282318
3.918,0.0677649
3.919,0.184922
3.92,0.0772591
3.921,0.276095
3.922,0.0805391
3.923,0.184895
3.924,0.354471
3.925,-0.4172
3.926,-0.198876
3.927,0.279306
3.928,-0.460583
3.929,-0.376218
3.93,0.417319
3.931,-0.0372596
3.932,-0.116433
3.933,0.265944
3.934,0.481791
3.935,-0.621405
3.936,0.187988
3.937,0.176566
3.938,0.575743
3.939,-0.0753962
3.94,0.22317
3.941,-0.468628
3.942,-0.831277
3.943,0.41369
3.944,-0.788137
3.945,-0.133775
3.946,-0.607306
3.947,0.0428763
3.948,0.538601
3.949,0.60478
3.95,-0.122988
3.951,0.392275
3.952,0.212547
3.953,0.567588
3.954,-0.00169605
3.955,-0.577827
3.956,0.665601
3.957,0.185881
3.958,-0.106793
3.959,-0.50699
3.96,-0.821454
3.961,-0.0639274
3.962,-0.144522
3.963,0.0560751
3.964,0.232886
3.965,0.062149
3.966,-0.0157073
3.967,0.373092
3.968,-0.202699
3.969,0.434498
3.97,0.785833
3.971,0.152158
3.972,0.461644
3.973,-0.121638
3.974,0.266307
3.975,-0.0110238
3.976,0.110908
3.977,-0.0336498
3.978,0.429707
3.979,0.0206036
3.98,0.100839
3.981,0.357733
3.982,-0.325356
3.983,0.135476
3.984,0.678675
3.985,0.328487
3.986,-0.0933392
3.987,0.512418
3.988,0.885621
3.989,0.720067
3.99,0.575364
3.991,-0.0555007
3.992,0.00888351
3.993,0.215566
3.994,0.0598358
3.995,0.101631
3.996,0.398372
3.997,-0.227579
3.998,0.373925
3.999,0.276514
4,0.713868
4.001,0.602342
4.002,0.0996632
4.003,0.492425
4.004,0.031452
4.005,-0.238793
4.006,-0.688893
4.007,-0.132589
4.008,0.182302
4.009,-0.203916
4.01,0.519336
4.011,-0.34232
4.012,0.647789
4.013,0.515789
4.014,-0.151247
4.015,0.367566
4.016,0.376142
4.017,-0.148365
4.018,0.0402481
4.019,0.434596
4.02,-0.132161
4.021,-0.476337
4.022,-0.0816294
4.023,-0.571963
4.024,-0.0819914
4.025,-0.207252
4.026,-0.313572
4.027,0.532962
4.028,-0.0912866
4.029,0.090147
4.03,0.0624844
4.031,-0.041321
4.032,0.231073
4.033,-0.204513
4.034,0.482168
4.035,-0.445437
4.036,0.205186
4.037,-0.154398
4.038,-0.120149
4.039,-0.10411
4.04,0.177667
4.041,-0.341722
4.042,-0.184809
4.043,-0.151748
4.044,-0.343055
4.045,-0.0110344
4.046,-0.392254
4.047,0.511417
4.048,0.299222
4.049,0.0648056
4.05,0.114381
4.051,0.536588
4.052,0.227377
4.053,0.151521
4.054,-0.310228
4.055,-0.0447002
4.056,0.0834751
4.057,0.0912438
4.058,0.454837
4.059,-0.171092
4.06,0.212018
4.061,-0.274328
4.062,-0.0888326
4.063,0.711683
4.064,-0.146258
4.065,-0.15138
4.066,-0.0178992
4.067,-0.372955
4.068,-0.120844
4.069,0.21178
4.07,0.125244
4.071,0.747833
4.072,0.0838529
4.073,0.106725
4.074,0.280896
4.075,-0.433831
4.076,0.401937
4.077,-0.324899
4.078,-0.0407764
4.079,-0.184129
4.08,0.0773401
4.081,0.0827587
4.082,-0.141197
4.083,0.585979
4.084,0.308442
4.085,0.13623
4.086,-0.0289249
4.087,0.122815
4.088,-0.0421557
4.089,-0.0429184
4.09,0.0439532
4.091,-0.240625
4.092,-0.532385
4.093,0.0406892
4.094,-0.990059
4.095,-0.0419287
4.096,0.620405
4.097,0.405599
4.098,-0.756613
4.099,0.117646
4.1,-0.577825
4.101,-0.395426
4.102,-0.0314307
4.103,0.271178
4.104,0.118383
4.105,-0.695079
4.106,0.384187
4.107,-0.0439234
4.108,0.30383
4.109,-0.151398
4.11,-0.584283
4.111,0.0223657
4.112,-0.0893258
4.113,-0.630548
4.114,-0.566327
4.115,-0.430911
4.116,-0.874314
4.117,-0.290576
4.118,0.0843287
4.119,-0.0292654
4.12,0.517436
4.121,-0.421922
4.122,0.334957
4.123,0.109082
4.124,0.352972
4.125,-0.315426
4.126,-0.371484
4.127,0.162215
4.128,0.0386751
4.129,0.0284928
4.13,-0.671932
4.131,0.0940943
4.132,0.531598
4.133,0.327567
4.134,-0.233447
4.135,-0.0851832
4.136,-0.240626
4.137,-0.23921
4.138,-0.114907
4.139,0.208506
4.14,0.217404
4.141,0.229242
4.142,-0.439095
4.143,0.262064
4.144,0.525391
4.145,0.0473663
4.146,0.000625041
4.147,-0.259571
4.148,-0.00993095
4.149,0.196964
4.15,-0.382668
4.151,-0.0780518
4.152,0.000222436
4.153,0.502979
4.154,0.455709
4.155,0.700917
4.156,-0.315515
4.157,0.423181
4.158,-0.238585
4.159,0.606777
4.16,-0.333464
4.161,-0.257083
4.162,0.13537
4.163,-0.199411
4.164,0.69493
4.165,-0.117042
4.166,0.250091
4.167,0.183329
4.168,0.124661
4.169,0.0688087
4.17,-0.0611639
4.171,0.0640332
4.172,0.185396
4.173,-0.266653
4.174,0.0985303
4.175,0.357996
4.176,0.271917
4.177,0.335264
4.178,0.24554
4.179,-0.38371
4.18,-0.300634
4.181,-0.176032
4.182,0.203344
4.183,-0.0282018
4.184,0.475318
4.185,-0.137383
4.186,0.193646
4.187,-0.591734
4.188,-0.283079
4.189,-0.133802
4.19,-0.0674192
4.191,0.378926
4.192,-0.240253
4.193,-0.271254
4.194,0.013245
4.195,0.614031
4.196,-0.119825
4.197,-0.324037
4.198,0.147275
4.199,0.145067
4.2,-0.563103
4.201,0.533224
4.202,-0.023591
4.203,-0.296084
4.204,0.218556
4.205,-0.178075
4.206,-0.0399663
4.207,0.108031
4.208,-0.561331
4.209,-0.0449208
4.21,0.242206
4.211,0.216669
4.212,0.180738
4.213,0.220828
4.214,0.356567
4.215,-0.332898
4.216,0.358531
4.217,-0.475484
4.218,-0.130214
4.219,-0.222253
4.22,-0.294045
4.221,-0.160748
4.222,0.032458
4.223,-0.502828
4.224,-0.0711183
4.225,0.0455448
4.226,-0.550501
4.227,-0.505978
4.228,-0.296707
4.229,-0.279976
4.23,0.31687
4.231,-0.220138
4.232,-0.107549
4.233,-0.141027
4.234,-0.279433
4.235,-0.379469
4.236,0.116508
4.237,0.159264
4.238,-0.297838
4.239,-0.0657501
4.24,-0.314319
4.241,-0.384622
4.242,-0.303669
4.243,-0.0348533
4.244,0.714885
4.245,-0.0292409
4.246,0.260588
4.247,0.0595424
4.248,0.549774
4.249,-0.282217
4.25,0.0821018
4.251,-0.165452
4.252,0.516145
4.253,-0.186133
4.254,0.944105
4.255,0.529874
4.256,0.0294597
4.257,-0.533227
4.258,-0.302252
4.259,-0.376659
4.26,0.0355414
4.261,-0.62344
4.262,0.14601
4.263,-0.844724
4.264,-0.508699
4.265,-0.364147
4.266,-0.250032
4.267,-0.28991
4.268,-0.0292554
4.269,-0.133613
4.27,-0.948119
4.271,-1.08297
4.272,-0.0621223
4.273,-0.368672
4.274,-0.27053
4.275,-0.492596
4.276,-0.323569
4.277,-0.539118
4.278,-0.336574
4.279,-0.209856
4.28,-0.248485
4.281,-0.905367
4.282,0.277123
4.283,0.153745
4.284,-0.173376
4.285,0.1182
4.286,0.669898
4.287,-0.0273177
4.288,0.592395
4.289,-0.27633
4.29,0.692133
4.291,0.864047
4.292,0.303365
4.293,0.292148
4.294,0.841258
4.295,0.760735
4.296,0.920797
4.297,0.663218
4.298,0.645217
4.299,0.00352208
4.3,0.325427
4.301,1.03549
4.302,0.330386
4.303,0.816404
4.304,0.382633
4.305,1.03877
4.306,0.689393
4.307,1.09028
4.308,0.532522
4.309,0.470494
4.31,0.136026
4.311,0.0531549
4.312,0.172749
4.313,-0.362087
4.314,-0.472963
4.315,-0.051421
4.316,-0.380449
4.317,0.334351
4.318,-0.265226
4.319,-0.0635135
4.32,-0.511926
4.321,0.0517303
4.322,0.415759
4.323,-0.190576
4.324,-0.842993
4.325,-0.251297
4.326,0.0787881
4.327,-0.223937
4.328,0.0726614
4.329,0.601094
4.33,-0.191004
4.331,-0.137278
4.332,-0.666691
4.333,0.102916
4.334,-0.383913
4.335,-0.403764
4.336,-0.419929
4.337,-0.17987
4.338,-0.129243
4.339,-0.106837
4.34,1.09352
4.341,0.297337
4.342,0.0856315
4.343,-0.70604
4.344,-0.960415
4.345,0.710975
4.346,-0.0647001
4.347,-0.204572
4.348,-0.231882
4.349,0.391576
4.35,-0.0101741
4.351,-0.43997
4.352,-0.078159
4.353,-0.0963241
4.354,-0.117861
4.355,0.100798
4.356,0.0520054
4.357,0.293071
4.358,-0.0829461
4.359,0.0862379
4.36,-0.344943
4.361,-0.152673
4.362,-0.0188294
4.363,-0.360032
4.364,0.145993
4.365,-0.0152939
4.366,0.93297
4.367,0.335624
4.368,-0.438848
4.369,0.200491
4.37,-0.0960741
4.371,0.0441766
4.372,0.27347
4.373,-0.215539
4.374,-0.0314746
4.375,0.00956052
4.376,0.20238
4.377,-0.120245
4.378,0.0478555
4.379,-0.174292
4.38,0.14744
4.381,-0.0481032
4.382,0.325676
4.383,0.220576
4.384,0.420777
4.385,-0.430266
4.386,-0.156902
4.387,0.106448
4.388,-0.627896
4.389,0.111667
4.39,-0.0427791
4.391,-0.175595
4.392,-0.367345
4.393,-0.507122
4.394,0.248247
4.395,0.274527
4.396,-0.125386
4.397,0.0264271
4.398,0.241876
4.399,0.298816
4.4,-0.0629531
4.401,0.936073
4.402,0.377977
4.403,-0.141037
4.404,0.574544
4.405,0.0140546
4.406,-0.314382
4.407,-0.312645
4.408,-0.173528
4.409,-0.422375
4.41,-0.0374679
4.411,0.84454
4.412,0.0676895
4.413,0.0960147
4.414,-0.465377
4.415,-0.828846
4.416,-0.795755
4.417,-0.34316
4.418,0.669469
4.419,0.590724
4.42,-0.477092
4.421,-0.0835761
4.422,-0.0956123
4.423,0.100558
4.424,0.311429
4.425,-0.0229648
4.426,-0.576394
4.427,0.151617
4.428,-0.622865
4.429,0.252187
4.43,0.144688
4.431,-0.29957
4.432,0.146822
4.433,-0.269514
4.434,-0.201658
4.435,-0.1113
4.436,0.537792
4.437,0.612613
4.438,0.157346
4.439,-0.357091
4.44,0.0904439
4.441,0.973613
4.442,-0.218224
4.443,0.191078
4.444,0.649813
4.445,0.2265
4.446,-0.389229
4.447,-0.338765
4.448,0.123178
4.449,-0.0104113
4.45,0.284696
4.451,0.141694
4.452,-0.0502535
4.453,0.16515
4.454,0.0147826
4.455,0.274829
4.456,-0.298046
4.457,-0.295244
4.458,0.126417
4.459,0.420073
4.46,0.36743
4.461,-0.212094
4.462,0.000539823
4.463,0.0422824
4.464,0.0633164
4.465,0.462572
4.466,0.547119
4.467,-0.104261
4.468,-0.0687086
4.469,-0.0316672
4.47,-0.236715
4.471,0.477644
4.472,-0.0202385
4.473,0.277829
4.474,0.47156
4.475,0.111045
4.476,0.540249
4.477,0.0634019
4.478,0.642459
4.479,0.458518
4.48,0.575707
4.481,0.0488496
4.482,0.358829
4.483,0.723795
4.484,0.372494
4.485,0.910661
4.486,0.368511
4.487,-0.151581
4.488,0.112902
4.489,-0.444959
4.49,0.533421
4.491,-0.124065
4.492,0.382498
4.493,0.00226669
4.494,0.0475769
4.495,0.313481
4.496,0.495152
4.497,0.459917
4.498,0.0205048
4.499,-0.178445
4.5,-0.0478973
4.501,0.114854
4.502,0.450412
4.503,0.545124
4.504,-0.181045
4.505,-0.159906
4.506,-0.263823
4.507,0.169457
4.508,0.156598
4.509,-0.100784
4.51,0.564045
4.511,0.529467
4.512,-0.205628
4.513,-0.00382439
4.514,0.0916479
4.515,-0.109945
4.516,0.239322
4.517,-0.0884066
4.518,0.298207
4.519,-0.137579
4.52,0.0415079
4.521,0.472377
4.522,-0.197525
4.523,-0.17381
4.524,-0.224689
4.525,0.246905
4.526,-0.0186197
4.527,0.479001
4.528,0.328379
4.529,-0.104925
4.53,-0.250938
4.531,0.0147259
4.532,0.852148
4.533,0.377964
4.534,-0.215468
4.535,0.462097
4.536,0.603301
4.537,-0.367373
4.538,-0.281586
4.539,0.273617
4.54,0.0826246
4.541,-0.255082
4.542,0.457582
4.543,-0.136612
4.544,0.0787378
4.545,0.389594
4.546,-0.110216
4.547,0.359463
4.548,-0.0814675
4.549,-0.0597307
4.55,-0.340151
4.551,0.236269
4.552,0.648047
4.553,-0.0586907
4.554,0.306638
4.555,0.359702
4.556,-0.0585559
4.557,-0.28333
4.558,-0.279349
4.559,-0.054298
4.56,0.00105717
4.561,0.0560948
4.562,0.491023
4.563,-0.984661
4.564,-0.010968
4.565,-0.0321315
4.566,-0.0485832
4.567,0.0528739
4.568,0.624838
4.569,-0.361357
4.57,1.02592
4.571,-0.245135
4.572,0.090111
4.573,0.207305
4.574,0.311682
4.575,0.174038
4.576,0.998247
4.577,0.0315898
4.578,0.717885
4.579,0.311928
4.58,-0.17944
4.581,-0.511361
4.582,0.273804
4.583,0.203798
4.584,-0.147153
4.585,-0.725587
4.586,0.203091
4.587,0.416989
4.588,0.117482
4.589,0.182559
4.59,-0.197782
4.591,0.219266
4.592,0.0370531
4.593,0.467857
4.594,0.399805
4.595,0.0132822
4.596,0.0999212
4.597,0.207798
4.598,-0.434333
4.599,-0.0736903
4.6,0.706593
4.601,-0.742489
4.602,-0.210497
4.603,-0.0740887
4.604,-0.388314
4.605,0.192674
4.606,0.442414
4.607,-0.0076476
4.608,0.26821
4.609,-0.41955
4.61,0.0897866
4.611,0.106204
4.612,0.552608
4.613,0.0353853
4.614,0.841835
4.615,-0.0711308
4.616,0.346375
4.617,0.758988
4.618,-0.0917692
4.619,-0.113043
4.62,-0.729117
4.621,-0.102152
4.622,-0.447344
4.623,-0.171079
4.624,-0.349975
4.625,0.166457
4.626,-0.0474467
4.627,0.142794
4.628,0.364581
4.629,0.313293
4.63,0.0343403
4.631,-0.030633
4.632,-0.249728
4.633,-0.535411
4.634,-0.0546436
4.635,-0.230011
4.636,-0.418427
4.637,0.353722
4.638,0.176622
4.639,0.835159
4.64,-0.154741
4.641,-0.0583409
4.642,-0.00231614
4.643,-0.326798
4.644,0.0242961
4.645,0.477865
4.646,0.194904
4.647,-0.405719
4.648,0.333858
4.649,0.231491
4.65,0.189104
4.651,-0.190751
4.652,0.113093
4.653,0.174843
4.654,-0.643583
4.655,0.312283
4.656,-0.0810738
4.657,0.299495
4.658,0.213946
4.659,0.166657
4.66,0.239306
4.661,0.171779
4.662,-0.333565
4.663,0.198441
4.664,-0.0949296
4.665,-0.235285
4.666,0.465966
4.667,0.408178
4.668,0.152739
4.669,-0.399039
4.67,0.0209019
4.671,0.15631
4.672,-0.000926428
4.673,-0.113093
4.674,0.590568
4.675,0.644723
4.676,0.07409
4.677,0.023499
4.678,0.206107
4.679,0.770148
4.68,0.283416
4.681,-0.0924428
4.682,0.497289
4.683,-0.115327
4.684,0.0460364
4.685,-0.247525
4.686,-0.262918
4.687,-0.466851
4.688,0.570186
4.689,-0.374756
4.69,0.306575
4.691,-0.281633
4.692,0.0293688
4.693,-0.16499
4.694,-0.189932
4.695,-0.0848346
4.696,0.237736
4.697,0.442294
4.698,-0.117439
4.699,0.346616
4.7,-0.486863
4.701,-0.948753
4.702,-0.0136695
4.703,0.402615
4.704,-0.172024
4.705,0.251668
4.706,-0.357867
4.707,-0.323144
4.708,0.0343984
4.709,0.180827
4.71,0.759319
4.711,0.263575
4.712,0.00550661
4.713,-0.374632
4.714,0.0485016
4.715,-0.269815
4.716,0.392856
4.717,0.105755
4.718,-0.214447
4.719,0.26423
4.72,-0.112553
4.721,0.279608
4.722,0.499458
4.723,-0.821174
4.724,0.00224055
4.725,-0.349623
4.726,0.199635
4.727,-0.413733
4.728,0.194929
4.729,-0.392906
4.73,0.429226
4.731,-0.0426195
4.732,0.0870644
4.733,-0.23308
4.734,-0.211248
4.735,0.453053
4.736,0.597468
4.737,-0.167092
4.738,0.522779
4.739,0.0623061
4.74,-0.43985
4.741,-0.0831323
4.742,-0.509517
4.743,0.189399
4.744,-0.270399
4.745,-0.411336
4.746,0.197494
4.747,0.395055
4.748,-0.072352
4.749,-0.0172063
4.75,-0.692302
4.751,-0.276997
4.752,0.178376
4.753,0.0484328
4.754,0.460898
4.755,0.0131501
4.756,0.446093
4.757,0.0242728
4.758,0.0992205
4.759,-0.415938
4.76,0.0713663
4.761,-0.295977
4.762,0.0814335
4.763,-0.396731
4.764,-0.17541
4.765,0.320148
4.766,-0.458209
4.767,-0.110336
4.768,0.262934
4.769,-0.541054
4.77,-0.141523
4.771,-0.453992
4.772,0.869778
4.773,-0.373222
4.774,-0.422051
4.775,-0.0164003
4.776,0.145282
4.777,-0.14529
4.778,-0.270378
4.779,-0.129865
4.78,0.157901
4.781,0.301724
4.782,-0.188357
4.783,-0.222361
4.784,0.15122
4.785,-0.161044
4.786,-0.107239
4.787,0.409287
4.788,0.146204
4.789,0.54258
4.79,-0.160299
4.791,-0.489989
4.792,0.180988
4.793,0.0238138
4.794,0.766427
4.795,-0.0037791
4.796,-0.129311
4.797,-0.476207
4.798,0.0802461
4.799,0.388305
4.8,0.399449
4.801,-0.492488
4.802,-0.286537
4.803,-0.0409112
4.804,-0.290677
4.805,0.157524
4.806,0.184628
4.807,-0.128346
4.808,0.31819
4.809,-0.177173
4.81,0.269025
4.811,-0.169375
4.812,-0.224476
4.813,0.428502
4.814,0.369938
4.815,0.280782
4.816,0.196
4.817,-0.068814
4.818,0.695316
4.819,-0.310112
4.82,-0.448268
4.821,0.132623
4.822,-0.0858063
4.823,0.0484304
4.824,-0.0243233
4.825,-0.000329722
4.826,0.117744
4.827,0.444845
4.828,-0.415512
4.829,0.256268
4.83,0.291103
4.831,-0.512567
4.832,0.326106
4.833,-0.122842
4.834,-0.119852
4.835,0.102821
4.836,0.273939
4.837,-0.128385
4.838,-0.0779078
4.839,-0.41997
4.84,0.333678
4.841,0.120031
4.842,0.326968
4.843,0.312367
4.844,0.552181
4.845,0.450391
4.846,0.198633
4.847,-0.260224
4.848,-0.25436
4.849,-0.42071
4.85,0.23789
4.851,0.388964
4.852,0.482978
4.853,-0.130614
4.854,0.424762
4.855,-0.567911
4.856,0.724515
4.857,0.0187914
4.858,-0.00592776
4.859,-0.010706
4.86,0.0617186
4.861,0.079861
4.862,0.200432
4.863,0.427953
4.864,0.269799
4.865,-0.251035
4.866,0.307751
4.867,-0.422803
4.868,0.234315
4.869,0.130446
4.87,0.534416
4.871,0.0388709
4.872,-0.0205625
4.873,-0.100149
4.874,0.380019
4.875,0.664121
4.876,0.0444136
4.877,0.187612
4.878,-0.338231
4.879,0.0184951
4.88,-0.113357
4.881,0.353343
4.882,-0.208516
4.883,0.165647
4.884,0.38038
4.885,-0.354578
4.886,0.539152
4.887,-0.529678
4.888,0.153043
4.889,-0.393109
4.89,0.00931752
4.891,-0.396768
4.892,0.168216
4.893,0.0878575
4.894,0.0558168
4.895,-0.430338
4.896,-0.460128
4.897,-0.352564
4.898,0.313273
4.899,-0.459377
4.9,0.192007
4.901,-0.382694
4.902,-0.229059
4.903,-0.378222
4.904,-0.151794
4.905,-0.585004
4.906,0.376555
4.907,0.050151
4.908,0.0189178
4.909,0.0312991
4.91,-0.268359
4.911,-0.065021
4.912,0.0379247
4.913,0.11375
4.914,0.0193653
4.915,-0.331062
4.916,0.112654
4.917,0.0401054
4.918,0.00914637
4.919,0.341032
4.92,-0.078059
4.921,0.157306
4.922,-0.569727
4.923,-0.490444
4.924,0.395516
4.925,-0.253789
4.926,-0.302924
4.927,0.355751
4.928,-0.333571
4.929,-0.0872817
4.93,0.0479753
4.931,0.110205
4.932,0.297176
4.933,-0.784036
4.934,-0.286732
4.935,-0.291635
4.936,0.34543
4.937,0.322929
4.938,-0.333927
4.939,-0.340058
4.94,-0.226535
4.941,1.02433
4.942,0.00959822
4.943,0.0549594
4.944,-0.330853
4.945,-0.0433023
4.946,-0.350548
4.947,0.315591
4.948,-0.181926
4.949,-0.893452
4.95,0.245986
4.951,-0.168249
4.952,0.196592
4.953,-0.66641
4.954,0.0685628
4.955,-0.00895755
4.956,0.648263
4.957,-0.721526
4.958,0.119245
4.959,-0.889483
4.96,-0.11653
4.961,0.516061
4.962,0.379365
4.963,-0.343861
4.964,0.12598
4.965,-0.785411
4.966,0.0482437
4.967,-0.666448
4.968,0.627375
4.969,0.163496
4.97,0.0541301
4.971,-0.167414
4.972,0.465509
4.973,0.0385191
4.974,-0.714446
4.975,-0.169401
4.976,-0.0747599
4.977,-0.27484
4.978,-0.125469
4.979,-0.233639
4.98,0.39737
4.981,0.642012
4.982,0.688891
4.983,-0.256463
4.984,0.413491
4.985,0.208972
4.986,0.254104
4.987,0.0612857
4.988,0.740099
4.989,-0.543992
4.99,0.428549
4.991,0.0131628
4.992,0.497787
4.993,-0.259097
4.994,-0.512351
4.995,-0.295033
4.996,0.350157
4.997,0.127766
4.998,0.309979
4.999,0.0168487
5,0.0394616
5.001,-0.166892
5.002,0.341151
5.003,0.265852
5.004,0.177285
5.005,0.518528
5.006,0.25894
5.007,0.436205
5.008,0.203427
5.009,0.0939654
5.01,0.242745
5.011,-0.0563694
5.012,-0.664923
5.013,0.445995
5.014,0.310333
5.015,-0.213494
5.016,-0.376398
5.017,0.139288
5.018,0.0276515
5.019,-0.139659
5.02,-0.550134
5.021,0.173374
5.022,-0.639162
5.023,-0.168813
5.024,0.000386109
5.025,-0.712493
5.026,-0.0613116
5.027,-0.662464
5.028,-0.436298
5.029,0.642826
5.03,0.064261
5.031,0.131958
5.032,-0.123936
5.033,0.482052
5.034,0.497769
5.035,0.245932
5.036,-0.0183944
5.037,0.331797
5.038,0.169591
5.039,0.403487
5.04,-0.436653
5.041,0.0313712
5.042,-0.515106
5.043,0.283996
5.044,0.403567
5.045,-0.00896111
5.046,0.0541287
5.047,0.31191
5.048,-0.133499
5.049,-0.169538
5.05,-0.230489
5.051,-0.0188115
5.052,0.69356
5.053,-0.149264
5.054,-0.568189
5.055,0.0349159
5.056,-0.11937
5.057,-0.238531
5.058,-0.307461
5.059,0.169418
5.06,-0.00841903
5.061,-0.639747
5.062,0.148112
5.063,0.341244
5.064,0.198126
5.065,-0.0965003
5.066,-0.510216
5.067,-0.618163
5.068,0.13472
5.069,-0.253107
5.07,-0.43282
5.071,-0.0577138
5.072,-0.288109
5.073,-0.258652
5.074,-0.685409
5.075,0.222373
5.076,-0.0272585
5.077,-0.532758
5.078,-0.381033
5.079,-0.0808018
5.08,0.0802285
5.081,-0.0722717
5.082,-0.0525093
5.083,0.225828
5.084,0.0367653
5.085,-0.602266
5.086,0.103762
5.087,0.108551
5.088,0.829876
5.089,0.802076
5.09,0.538202
5.091,0.893581
5.092,0.532252
5.093,0.845858
5.094,0.741409
5.095,0.566945
5.096,0.825263
5.097,0.41368
5.098,1.46118
5.099,1.29109
5.1,0.633643
5.101,0.743687
5.102,1.0169
5.103,0.304138
5.104,0.710379
5.105,0.423797
5.106,0.386554
5.107,0.699128
5.108,0.266121
5.109,0.165167
5.11,1.20295
5.111,1.0763
5.112,-0.254808
5.113,-0.562883
5.114,0.371074
5.115,-0.112462
5.116,0.1577
5.117,0.0850714
5.118,0.294002
5.119,-0.25992
5.12,0.406094
5.121,-0.263479
5.122,-0.480316
5.123,-0.0067318
5.124,-0.0381808
5.125,0.576323
5.126,0.258642
5.127,-0.0413567
5.128,-0.400607
5.129,0.0952927
5.13,-0.0637759
5.131,0.226928
5.132,0.0632216
5.133,0.285173
5.134,-0.173063
5.135,-0.140938
5.136,0.201918
5.137,0.232714
5.138,-0.00811922
5.139,0.549209
5.14,0.685567
5.141,0.167864
5.142,0.0218043
5.143,0.0659891
5.144,-0.0919906
5.145,0.514441
5.146,-0.271616
5.147,-0.220448
5.148,0.125458
5.149,0.0459157
5.15,-0.536286
5.151,0.152141
5.152,0.27691
5.153,0.0708018
5.154,-0.330255
5.155,-0.214932
5.156,-0.685758
5.157,0.0981585
5.158,-0.443399
5.159,-0.0949192
5.16,-0.119964
5.161,-0.0824962
5.162,0.148325
5.163,-0.117999
5.164,0.454374
5.165,-0.0776134
5.166,0.534366
5.167,0.153079
5.168,-0.459459
5.169,-0.400005
5.17,-0.0896903
5.171,0.217705
5.172,0.478159
5.173,0.359237
5.174,0.0643856
5.175,0.289971
5.176,0.0801618
5.177,-0.137474
5.178,0.190839
5.179,-0.0797237
5.18,0.148963
5.181,0.35493
5.182,-0.0489692
5.183,0.0294173
5.184,-0.117992
5.185,0.111917
5.186,0.365064
5.187,-0.107836
5.188,0.294558
5.189,0.0226452
5.19,-0.59445
5.191,-0.0161019
5.192,-0.44517
5.193,0.265697
5.194,-0.456059
5.195,0.117092
5.196,-0.517302
5.197,-0.180231
5.198,-0.548862
5.199,0.0136572
5.2,0.0861397
5.201,0.271757
5.202,-0.0474335
5.203,0.251287
5.204,0.155996
5.205,0.731641
5.206,-0.136499
5.207,0.442138
5.208,0.325747
5.209,0.242472
5.21,0.00968068
5.211,0.064196
5.212,0.586966
5.213,0.606177
5.214,0.451186
5.215,-0.0109848
5.216,0.0774956
5.217,0.44268
5.218,-0.140591
5.219,-0.145607
5.22,-0.455274
5.221,0.0920286
5.222,0.376082
5.223,-0.686584
5.224,0.22499
5.225,-0.509731
5.226,0.0413651
5.227,-0.15685
5.228,-0.128627
5.229,-0.00555252
5.23,0.0774975
5.231,0.333903
5.232,0.207303
5.233,-0.380934
5.234,-0.106007
5.235,-0.666484
5.236,0.283495
5.237,-0.482621
5.238,0.245502
5.239,0.433054
5.24,0.17784
5.241,0.579093
5.242,-0.499116
5.243,0.107972
5.244,-0.080303
5.245,-0.0630566
5.246,-0.464238
5.247,0.10965
5.248,-0.193043
5.249,0.860319
5.25,0.0134785
5.251,0.10043
5.252,0.192994
5.253,-0.87821
5.254,0.0773916
5.255,0.25304
5.256,0.562596
5.257,0.0898334
5.258,0.418134
5.259,0.366768
5.26,-0.345992
5.261,-0.0564145
5.262,-0.142944
5.263,0.235144
5.264,0.216593
5.265,0.361199
5.266,-0.364476
5.267,0.0295625
5.268,0.0905149
5.269,0.245155
5.27,0.17217
5.271,0.399151
5.272,-0.151012
5.273,0.212205
5.274,0.374
5.275,0.136543
5.276,0.206948
5.277,0.720909
5.278,0.305709
5.279,0.00715366
5.28,0.0870147
5.281,0.343359
5.282,-0.161488
5.283,0.335969
5.284,-0.232698
5.285,-0.268077
5.286,0.455445
5.287,-0.422609
5.288,0.448787
5.289,0.48524
5.29,-0.205836
5.291,0.249199
5.292,0.342198
5.293,0.390458
5.294,-0.238832
5.295,0.531485
5.296,0.505394
5.297,0.077354
5.298,0.142786
5.299,0.162855
5.3,0.48456
5.301,-0.57379
5.302,0.21088
5.303,0.114344
5.304,-0.0285843
5.305,0.208521
5.306,0.239609
5.307,0.15156
5.308,-0.120283
5.309,-0.219772
5.31,-1.01473
5.311,-0.132722
5.312,0.0629697
5.313,0.528225
5.314,0.132945
5.315,0.0639385
5.316,0.363762
5.317,-0.112508
5.318,-0.322319
5.319,0.150243
5.32,0.150538
5.321,-0.32777
5.322,-0.193832
5.323,0.166653
5.324,-0.152082
5.325,-0.203344
5.326,-0.0314991
5.327,0.41373
5.328,0.376605
5.329,0.0491996
5.33,-0.270161
5.331,0.35429
5.332,-0.165905
5.333,0.27768
5.334,0.424667
5.335,0.754643
5.336,-0.462113
5.337,0.0502278
5.338,0.568784
5.339,0.0658788
5.34,0.225674
5.341,0.195819
5.342,0.287108
5.343,0.0550628
5.344,0.386575
5.345,0.201386
5.346,0.395163
5.347,0.0678099
5.348,0.536329
5.349,0.0718874
5.35,-0.119353
5.351,0.405581
5.352,-0.0356064
5.353,-0.121215
5.354,0.646661
5.355,0.233133
5.356,0.0879611
5.357,0.341903
5.358,0.381169
5.359,0.0787203
5.36,-0.175696
5.361,0.0404178
5.362,-0.4702
5.363,-0.0632253
5.364,-0.0176692
5.365,0.118324
5.366,0.279474
5.367,0.0465887
5.368,0.404931
5.369,0.0720649
5.37,-0.0642896
5.371,-0.00600454
5.372,-0.118968
5.373,-0.237359
5.374,-0.305244
5.375,-0.0829585
5.376,-0.0349978
5.377,0.333122
5.378,-0.0455339
5.379,0.224997
5.38,-0.613824
5.381,0.390649
5.382,0.13292
5.383,0.19813
5.384,-0.104649
5.385,0.170637
5.386,-0.455527
5.387,-0.377376
5.388,-0.162843
5.389,-0.352256
5.39,-0.14337
5.391,0.248776
5.392,0.135297
5.393,0.113541
5.394,-0.54177
5.395,-0.213205
5.396,0.73787
5.397,-0.16983
5.398,0.221522
5.399,0.470019
5.4,-0.046309
5.401,-0.0041544
5.402,0.422703
5.403,0.259918
5.404,0.250472
5.405,0.0176067
5.406,0.133939
5.407,0.120252
5.408,-0.423884
5.409,0.215374
5.41,-0.328574
5.411,-0.605466
5.412,-0.420781
5.413,-0.186342
5.414,0.250853
5.415,-0.0255429
5.416,-0.0450179
5.417,0.378364
5.418,-0.442024
5.419,0.419164
5.42,0.351015
5.421,-0.204478
5.422,0.445136
5.423,0.0532725
5.424,-0.298959
5.425,-0.531849
5.426,-0.872206
5.427,-0.231016
5.428,-0.754905
5.429,0.0274937
5.43,-0.466519
5.431,-0.0157893
5.432,-0.378039
5.433,0.0624478
5.434,-0.0665443
5.435,0.113127
5.436,-0.130833
5.437,-0.301583
5.438,0.324857
5.439,-0.036793
5.44,-0.480162
5.441,-0.840495
5.442,0.0637711
5.443,-0.402324
5.444,-0.361539
5.445,-0.174782
5.446,0.479223
5.447,0.593383
5.448,-0.65636
5.449,0.751493
5.45,0.135549
5.451,0.112808
5.452,-0.40534
5.453,0.616049
5.454,0.483643
5.455,0.360153
5.456,0.0416745
5.457,0.118433
5.458,-0.0711306
5.459,-0.105868
5.46,-0.368362
5.461,0.258797
5.462,0.432498
5.463,0.0415397
5.464,0.00930286
5.465,0.308345
5.466,-0.352521
5.467,-0.203278
5.468,-0.143753
5.469,-1.06853
5.47,0.0232324
5.471,0.423133
5.472,0.179859
5.473,0.0258224
5.474,0.130096
5.475,0.253283
5.476,-0.370443
5.477,-0.191803
5.478,0.11288
5.479,0.203508
5.48,-0.356781
5.481,-0.456046
5.482,0.00529163
5.483,0.0567731
5.484,-0.695856
5.485,-0.125081
5.486,0.0254133
5.487,0.0621872
5.488,0.574295
5.489,-0.541987
5.49,-0.180472
5.491,0.026062
5.492,-0.244043
5.493,-0.118819
5.494,0.304434
5.495,-0.393666
5.496,0.68918
5.497,0.121237
5.498,-0.00440529
5.499,-0.0272963
5.5,0.0841359
5.501,-0.30117
5.502,-0.227467
5.503,0.173112
5.504,0.761322
5.505,0.0248292
5.506,0.1251
5.507,0.0244598
5.508,-0.387283
5.509,0.095368
5.51,0.352019
5.511,0.283377
5.512,-0.758408
5.513,-0.104705
5.514,0.227531
5.515,0.0570833
5.516,-0.099824
5.517,0.439436
5.518,-0.117827
5.519,0.314983
5.52,0.271642
5.521,-0.182582
5.522,0.263758
5.523,0.0315574
5.524,-0.174074
5.525,0.313709
5.526,0.0418296
5.527,-0.097445
5.528,-0.0622703
5.529,0.188172
5.53,0.870382
5.531,0.0843175
5.532,0.36988
5.533,-0.098683
5.534,0.034759
5.535,0.333423
5.536,0.571866
5.537,-0.186688
5.538,0.334317
5.539,0.768628
5.54,-0.0236248
5.541,-0.285386
5.542,0.14373
5.543,-0.495538
5.544,0.544944
5.545,-0.108291
5.546,-0.801696
5.547,-0.250105
5.548,-0.0324424
5.549,-0.599628
5.55,-0.359608
5.551,0.141113
5.552,0.449591
5.553,0.55226
5.554,-0.456882
5.555,0.265409
5.556,0.288131
5.557,-0.347309
5.558,-0.0755375
5.559,0.797337
5.56,0.749748
5.561,0.179676
5.562,0.0773587
5.563,-0.0949579
5.564,0.193711
5.565,0.0737707
5.566,0.211945
5.567,0.0805904
5.568,0.205871
5.569,-0.297362
5.57,-0.526943
5.571,-0.335458
5.572,-0.266878
5.573,-0.22541
5.574,-0.198626
5.575,0.486097
5.576,0.290571
5.577,-0.283159
5.578,0.346628
5.579,0.0634183
5.58,-0.0589652
5.581,-0.17556
5.582,-0.433636
5.583,-0.501582
5.584,-0.322059
5.585,0.264424
5.586,-0.163642
5.587,0.243417
5.588,0.209573
5.589,0.138486
5.59,-0.111363
5.591,0.300301
5.592,0.627309
5.593,-0.161878
5.594,-0.136985
5.595,0.244822
5.596,0.0590043
5.597,0.43476
5.598,-0.341265
5.599,-0.546485
5.6,0.327141
5.601,-0.685843
5.602,-0.0239092
5.603,0.410499
5.604,0.281827
5.605,-0.0586956
5.606,-0.381619
5.607,0.0579597
5.608,0.373987
5.609,0.263641
5.61,-0.378887
5.611,0.205774
5.612,0.511904
5.613,-0.40273
5.614,0.424868
5.615,-0.188138
5.616,0.137031
5.617,-0.303555
5.618,0.0202516
5.619,-0.19368
5.62,0.071824
5.621,-0.578268
5.622,0.0395881
5.623,-0.810954
5.624,0.0133802
5.625,0.206595
5.626,0.431002
5.627,-0.131833
5.628,0.172709
5.629,0.256106
5.63,0.168285
5.631,0.03157
5.632,-0.49439
5.633,0.0991419
5.634,0.205868
5.635,-0.170056
5.636,0.831374
5.637,-0.0823985
5.638,0.604281
5.639,0.144645
5.64,0.12951
5.641,0.0671449
5.642,0.0980256
5.643,0.638797
5.644,0.323098
5.645,0.137687
5.646,-0.425533
5.647,-0.598592
5.648,-0.095564
5.649,-0.813652
5.65,0.00530635
5.651,-0.545829
5.652,-0.0664898
5.653,-0.062737
5.654,0.687176
5.655,-0.540028
5.656,-0.388021
5.657,0.333655
5.658,0.33513
5.659,0.348847
5.66,-0.323814
5.661,0.183555
5.662,-0.000410281
5.663,-0.249633
5.664,0.053001
5.665,0.717341
5.666,-0.270105
5.667,0.189714
5.668,-0.292089
5.669,-0.212757
5.67,0.61633
5.671,-0.483133
5.672,0.266264
5.673,-0.134582
5.674,-0.0939867
5.675,-0.344061
5.676,-0.322281
5.677,-0.162359
5.678,0.260243
5.679,0.290259
5.68,0.276284
5.681,-0.348533
5.682,-0.116777
5.683,0.76214
5.684,0.0686462
5.685,0.0417369
5.686,-0.176565
5.687,0.204054
5.688,0.0010347
5.689,-0.0461553
5.69,0.0289063
5.691,-0.471643
5.692,0.0804984
5.693,-0.286934
5.694,-0.0359574
5.695,-0.691745
5.696,0.60553
5.697,-0.209087
5.698,-0.0719068
5.699,0.383394
5.7,-0.161711
5.701,0.0797245
5.702,0.00338363
5.703,0.194155
5.704,0.136328
5.705,-0.0131196
5.706,0.0671781
5.707,0.880062
5.708,-0.0180919
5.709,-0.403646
5.71,0.0671361
5.711,-0.0738502
5.712,0.659335
5.713,0.60096
5.714,-0.576129
5.715,-0.00779912
5.716,-0.299687
5.717,0.610183
5.718,0.346898
5.719,-0.0638353
5.72,-0.0339359
5.721,0.17184
5.722,0.189317
5.723,-0.150962
5.724,0.00665496
5.725,0.964712
5.726,0.270034
5.727,0.0674039
5.728,0.559157
5.729,-0.186897
5.73,0.442703
5.731,-0.263764
5.732,0.306381
5.733,0.244204
5.734,0.486424
5.735,0.170798
5.736,-0.196566
5.737,-0.00592105
5.738,0.59927
5.739,0.0713945
5.74,-0.115128
5.741,0.452379
5.742,-0.84355
5.743,-0.128848
5.744,0.29317
5.745,0.836762
5.746,-0.912653
5.747,0.131569
5.748,-0.321548
5.749,0.033406
5.75,-0.05278
5.751,0.225036
5.752,-0.31198
5.753,-0.201286
5.754,0.142995
5.755,-0.547133
5.756,0.739407
5.757,0.0571887
5.758,0.538552
5.759,0.31517
5.76,-0.0133704
5.761,0.246697
5.762,-0.521751
5.763,0.210018
5.764,0.223263
5.765,-0.507162
5.766,-0.0135695
5.767,-0.939885
5.768,0.26309
5.769,-0.49457
5.77,-0.0118396
5.771,-0.169536
5.772,0.534856
5.773,0.23674
5.774,0.171863
5.775,0.0953264
5.776,-0.174201
5.777,0.10473
5.778,0.567181
5.779,-0.038764
5.78,0.109051
5.781,0.14089
5.782,0.124868
5.783,0.119067
5.784,0.184253
5.785,0.401151
5.786,0.0630783
5.787,0.420963
5.788,-0.309486
5.789,-0.132239
5.79,0.113822
5.791,-0.370854
5.792,0.0660708
5.793,-0.0337305
5.794,-0.175626
5.795,-0.0553339
5.796,-0.168508
5.797,-0.089895
5.798,0.222689
5.799,0.12105
5.8,-0.364577
5.801,-0.30397
5.802,-0.254535
5.803,0.430172
5.804,0.23067
5.805,-0.270073
5.806,-0.486175
5.807,0.167315
5.808,0.169674
5.809,-0.500878
5.81,-0.475694
5.811,0.0574602
5.812,-0.94291
5.813,-0.01873
5.814,-0.650494
5.815,-0.147714
5.816,-0.92134
5.817,-0.467325
5.818,-0.806106
5.819,-0.476217
5.82,-0.897371
5.821,-0.412499
5.822,-0.303314
5.823,-0.44619
5.824,0.522198
5.825,0.0103615
5.826,-0.274873
5.827,-0.2103
5.828,-0.339252
5.829,-0.146323
5.83,0.0917718
5.831,-0.815124
5.832,0.561881
5.833,0.543152
5.834,0.00978655
5.835,0.510675
5.836,0.439511
5.837,0.42764
5.838,0.70616
5.839,0.792262
5.84,-0.0861107
5.841,0.569984
5.842,0.555559
5.843,1.07081
5.844,0.487271
5.845,0.744761
5.846,1.28229
5.847,0.998358
5.848,1.32582
5.849,0.821922
5.85,0.901614
5.851,1.26892
5.852,0.565623
5.853,1.0454
5.854,0.775022
5.855,0.950391
5.856,0.530731
5.857,0.537982
5.858,0.855853
5.859,0.214193
5.86,-0.326217
5.861,-0.332662
5.862,0.305573
5.863,-0.231391
5.864,0.478233
5.865,0.0333466
5.866,0.210588
5.867,0.284906
5.868,0.176891
5.869,-0.151212
5.87,0.0154978
5.871,-0.0461948
5.872,0.246724
5.873,-0.535016
5.874,0.0166888
5.875,-0.101697
5.876,0.367299
5.877,0.195774
5.878,-0.267683
5.879,-0.231312
5.88,0.0474047
5.881,0.818612
5.882,-0.197795
5.883,0.499631
5.884,0.0791344
5.885,-0.247779
5.886,-0.303956
5.887,-0.160452
5.888,-0.439508
5.889,0.188253
5.89,0.264442
5.891,0.318472
5.892,-0.0833687
5.893,-0.476951
5.894,0.381761
5.895,-0.201864
5.896,0.346381
5.897,0.860791
5.898,-0.474678
5.899,-0.115645
5.9,0.203698
5.901,0.312088
5.902,-0.188138
5.903,0.2448
5.904,0.141315
5.905,0.735339
5.906,0.378856
5.907,-0.138818
5.908,-0.460179
5.909,0.140389
5.91,-0.353902
5.911,-0.559654
5.912,0.274797
5.913,-0.312069
5.914,-0.0702932
5.915,0.172662
5.916,0.049466
5.917,0.219927
5.918,0.242263
5.919,0.503718
5.92,0.0963126
5.921,0.307803
5.922,0.441678
5.923,0.140396
5.924,0.408254
5.925,-0.157521
5.926,-0.0035144
5.927,-0.541075
5.928,0.700372
5.929,0.0791407
5.93,0.0534987
5.931,-0.117044
5.932,0.366602
5.933,-0.505957
5.934,-0.191226
5.935,-0.818278
5.936,-0.238135
5.937,0.0218827
5.938,-0.0168868
5.939,-0.225634
5.94,0.112237
5.941,-0.428568
5.942,-0.0463043
5.943,-0.330179
5.944,0.170019
5.945,-0.455197
5.946,-0.287417
5.947,0.0615115
5.948,0.0479749
5.949,-0.161132
5.95,0.113582
5.951,-0.413636
5.952,0.403471
5.953,0.558104
5.954,0.524064
5.955,0.810612
5.956,-0.340237
5.957,-0.508752
5.958,0.35457
5.959,0.0602586
5.96,0.0533063
5.961,-0.361055
5.962,0.738479
5.963,0.385477
5.964,0.392085
5.965,0.28265
5.966,-0.0534176
5.967,0.676614
5.968,0.474699
5.969,0.402482
5.97,0.100974
5.971,-0.548212
5.972,-0.59902
5.973,-0.479476
5.974,-0.518308
5.975,0.517147
5.976,0.333519
5.977,0.0904996
5.978,0.218444
5.979,0.0213865
5.98,0.551298
5.981,0.194301
5.982,0.171229
5.983,0.700707
5.984,-0.0644554
5.985,-0.230218
5.986,0.233869
5.987,0.325126
5.988,0.0912064
5.989,0.0282791
5.99,-0.522311
5.991,-0.125855
5.992,-0.151568
5.993,0.307305
5.994,-0.193999
5.995,0.227543
5.996,0.0150694
5.997,-0.499666
5.998,0.265874
5.999,0.443463
6,-0.0330181
6.001,0.0956318
6.002,-0.413752
6.003,-0.26658
6.004,0.495766
6.005,-0.0933401
6.006,-0.292538
6.007,0.415226
6.008,-0.752847
6.009,0.279407
6.01,0.301609
6.011,0.385114
6.012,-0.0142124
6.013,0.189494
6.014,-0.209214
6.015,-0.121948
6.016,-0.0439703
6.017,0.180714
6.018,0.384244
6.019,0.350385
6.02,-0.491566
6.021,-0.0575697
6.022,0.177891
6.023,-0.457026
6.024,0.418954
6.025,0.346103
6.026,-0.211756
6.027,0.934762
6.028,0.220008
6.029,1.31769
6.03,0.415547
6.031,-0.659037
6.032,0.7271
6.033,0.0694281
6.034,0.298566
6.035,0.389073
6.036,0.512132
6.037,0.385217
6.038,-0.618196
6.039,-0.0706468
6.04,0.429109
6.041,0.681687
6.042,0.313333
6.043,-0.104314
6.044,-0.126658
6.045,-0.160767
6.046,0.424218
6.047,0.11819
6.048,0.401843
6.049,-0.181376
6.05,0.465965
6.051,0.111467
6.052,0.741407
6.053,-0.420625
6.054,-0.250179
6.055,0.198879
6.056,0.199575
6.057,-0.158985
6.058,0.137281
6.059,0.393553
6.06,-0.430131
6.061,0.582098
6.062,0.122773
6.063,-0.302293
6.064,0.266432
6.065,0.715684
6.066,0.986877
6.067,0.818066
6.068,-0.0262136
6.069,-0.455792
6.07,0.576176
6.071,-0.183512
6.072,0.559344
6.073,0.514076
6.074,-0.21443
6.075,0.438296
6.076,0.164649
6.077,0.357503
6.078,0.290712
6.079,-0.266955
6.08,-0.0592833
6.081,0.400071
6.082,0.137108
6.083,0.473339
6.084,-0.0315639
6.085,0.0699352
6.086,-0.359905
6.087,-0.197483
6.088,-0.441833
6.089,0.400893
6.09,-0.445615
6.091,0.610665
6.092,0.250584
6.093,0.155072
6.094,-0.701419
6.095,-0.371063
6.096,-0.432133
6.097,0.128881
6.098,-0.281196
6.099,0.425736
6.1,0.0920418
6.101,-0.356873
6.102,-0.0527494
6.103,-0.422536
6.104,-0.0945691
6.105,0.223765
6.106,0.054829
6.107,-0.0785979
6.108,-0.260674
6.109,-0.633537
6.11,-0.497757
6.111,-0.491788
6.112,-0.576317
6.113,-0.10821
6.114,0.18855
6.115,-0.104809
6.116,0.0114616
6.117,0.216979
6.118,0.0941615
6.119,-0.415386
6.12,0.0225526
6.121,0.254664
6.122,0.187367
6.123,-0.00853669
6.124,0.531645
6.125,-0.551988
6.126,0.202069
6.127,-0.155797
6.128,0.146138
6.129,-0.377604
6.13,-0.268236
6.131,-0.142924
6.132,0.0152423
6.133,0.0596472
6.134,-0.24645
6.135,-0.16193
6.136,0.355539
6.137,-0.141437
6.138,-0.272197
6.139,-0.507224
6.14,-0.234592
6.141,-0.0204848
6.142,-0.160742
6.143,0.198451
6.144,-0.939114
6.145,-0.45678
6.146,0.27619
6.147,-0.0916939
6.148,0.417018
6.149,-0.361268
6.15,0.596687
6.151,-0.444199
6.152,0.419461
6.153,0.161788
6.154,-0.00185129
6.155,-0.351739
6.156,0.0528985
6.157,-0.32632
6.158,0.562158
6.159,-0.0166862
6.16,-0.262115
6.161,-0.0539758
6.162,-0.598651
6.163,-0.460371
6.164,-0.626392
6.165,-0.0218619
6.166,0.398395
6.167,-0.56876
6.168,-0.722271
6.169,-0.340039
6.17,0.445789
6.171,0.1905
6.172,-0.184114
6.173,-0.247116
6.174,-0.210441
6.175,0.562351
6.176,0.051374
6.177,-0.0229775
6.178,-0.0691619
6.179,0.401262
6.18,0.771201
6.181,0.263413
6.182,0.666949
6.183,-0.255831
6.184,0.691206
6.185,-0.0537562
6.186,-0.451197
6.187,0.100922
6.188,0.132493
6.189,-0.0273812
6.19,-0.15863
6.191,0.174959
6.192,-0.215476
6.193,0.0931712
6.194,0.106663
6.195,-0.0854746
6.196,0.160689
6.197,-0.268993
6.198,0.0264089
6.199,0.107368
6.2,-0.188032
6.201,-0.257218
6.202,0.232836
6.203,0.10268
6.204,0.155097
6.205,-0.285705
6.206,-0.17877
6.207,0.241078
6.208,0.183926
6.209,-0.0433688
6.21,-0.473687
6.211,-0.354302
6.212,-0.541089
6.213,0.44065
6.214,-0.295189
6.215,0.159436
6.216,0.0463684
6.217,0.159815
6.218,0.0787966
6.219,-0.307718
6.22,0.193854
6.221,0.116144
6.222,0.0543526
6.223,0.0716173
6.224,-0.103479
6.225,-0.420105
6.226,-0.4216
6.227,-0.215829
6.228,-0.210565
6.229,0.153207
6.23,0.103112
6.231,-0.334361
6.232,0.0746083
6.233,0.358595
6.234,0.558951
6.235,0.193477
6.236,0.329301
6.237,-0.28079
6.238,-0.35621
6.239,0.283161
6.24,0.933448
6.241,-0.111387
6.242,0.0486548
6.243,-0.179275
6.244,0.0684191
6.245,-0.0304459
6.246,-0.434861
6.247,0.0975492
6.248,0.152942
6.249,0.568356
6.25,0.405954
6.251,0.347866
6.252,-0.0684899
6.253,-0.722428
6.254,-0.0954182
6.255,0.342957
6.256,-0.128774
6.257,-0.542982
6.258,0.148917
6.259,0.420889
6.26,-0.078441
6.261,0.180791
6.262,-0.0742063
6.263,-0.191916
6.264,-0.619757
6.265,-1.10736
6.266,-0.711307
6.267,-0.0338805
6.268,0.112131
6.269,-0.382336
6.27,-0.384653
6.271,-0.536955
6.272,0.787885
6.273,-0.074964
6.274,-0.389818
6.275,0.26639
6.276,-0.179513
6.277,-0.119567
6.278,0.188981
6.279,-0.237577
6.28,-0.789794
6.281,0.315912
6.282,-0.156597
6.283,-0.101386
6.284,0.397453
6.285,-0.158647
6.286,-0.56191
6.287,0.436351
6.288,-0.476459
6.289,-0.365211
6.29,-0.226079
6.291,-0.563982
6.292,-0.273326
6.293,0.304757
6.294,-0.454562
6.295,0.121547
6.296,-0.285487
6.297,0.762864
6.298,0.63821
6.299,0.00237679
6.3,0.0914783
6.301,0.0499855
6.302,-0.471878
6.303,-0.0721566
6.304,0.237842
6.305,0.0255064
6.306,0.757636
6.307,0.211036
6.308,0.497386
6.309,-0.220506
6.31,0.108161
6.311,0.504062
6.312,-0.520362
6.313,0.0606219
6.314,0.20961
6.315,-0.144201
6.316,0.0658967
6.317,-0.473483
6.318,0.433352
6.319,-0.357904
6.32,-0.0202726
6.321,-0.0969652
6.322,-0.253363
6.323,-0.0608601
6.324,-0.443759
6.325,0.0200298
6.326,-0.146031
6.327,0.130836
6.328,-0.297852
6.329,-0.58629
6.33,-0.26635
6.331,0.583815
6.332,-0.360384
6.333,-0.162349
6.334,-0.209245
6.335,-0.771428
6.336,-0.169523
6.337,-0.258465
6.338,0.306762
6.339,-0.696659
6.34,0.277499
6.341,0.668502
6.342,-0.477397
6.343,-0.615303
6.344,-0.0943793
6.345,-0.0334466
6.346,-0.00157045
6.347,-0.193371
6.348,-0.136266
6.349,-0.150246
6.35,0.204091
6.351,-0.475367
6.352,-0.747652
6.353,-0.286648
6.354,0.20439
6.355,-0.78699
6.356,-0.232421
6.357,-0.38314
6.358,-0.0475203
6.359,-0.772743
6.36,-0.187686
6.361,-0.0679291
6.362,0.365446
6.363,-0.297235
6.364,-0.129451
6.365,-0.371549
6.366,0.351032
6.367,-0.0314183
6.368,-0.816057
6.369,-0.709366
6.37,-0.343123
6.371,-0.645928
6.372,-0.302654
6.373,0.0794719
6.374,0.423822
6.375,0.040104
6.376,0.412792
6.377,0.875946
6.378,0.929897
6.379,0.794556
6.38,1.07295
6.381,0.542327
6.382,1.01497
6.383,1.96898
6.384,0.610788
6.385,0.822407
6.386,0.404964
6.387,0.854443
6.388,0.884834
6.389,0.396003
6.39,1.08724
6.391,0.400339
6.392,0.905782
6.393,0.789027
6.394,0.688047
6.395,1.21691
6.396,0.701682
6.397,0.670375
6.398,0.367007
6.399,0.176599
6.4,-0.0510343
6.401,-0.654899
6.402,0.13293
6.403,-0.056025
6.404,-0.108568
6.405,0.273399
6.406,0.0595429
6.407,0.371522
6.408,-0.388652
6.409,-0.231896
6.41,0.0156557
6.411,-0.320221
6.412,-0.104941
6.413,-0.0736732
6.414,-0.85914
6.415,-0.557743
6.416,0.403889
6.417,-0.608281
6.418,0.234162
6.419,-0.0190952
6.42,0.847224
6.421,0.339849
6.422,-0.0381421
6.423,-0.0655262
6.424,-0.0903849
6.425,-0.0291598
6.426,0.0170088
6.427,0.0181695
6.428,0.158568
6.429,0.404418
6.43,-0.518983
6.431,0.511278
6.432,0.442895
6.433,-0.271162
6.434,-0.20513
6.435,0.263244
6.436,-0.325514
6.437,0.0902836
6.438,-0.701157
6.439,0.683816
6.44,-0.463085
6.441,-0.0740651
6.442,-0.173539
6.443,0.549421
6.444,0.04754
6.445,-0.462685
6.446,-0.510876
6.447,0.0190995
6.448,-0.0754761
6.449,-0.330451
6.45,-0.54901
6.451,0.556145
6.452,-0.410313
6.453,-0.451132
6.454,-0.15737
6.455,-0.0296587
6.456,0.0347292
6.457,0.179149
6.458,0.517419
6.459,-0.0197362
6.46,0.645798
6.461,-0.387188
6.462,-0.0954022
6.463,-0.0567056
6.464,0.255409
6.465,0.507562
6.466,0.250402
6.467,-0.387086
6.468,0.127787
6.469,0.0337623
6.47,0.223622
6.471,-0.214872
6.472,-0.13856
6.473,-0.506009
6.474,-0.0100693
6.475,0.309887
6.476,-0.272796
6.477,0.255318
6.478,0.156396
6.479,-0.266554
6.48,0.0101095
6.481,-0.304127
6.482,-0.122815
6.483,0.46383
6.484,-0.471396
6.485,-0.653158
6.486,0.448535
6.487,-0.289253
6.488,0.189432
6.489,-0.170711
6.49,-0.514888
6.491,-0.196182
6.492,0.218225
6.493,0.687207
6.494,-0.180597
6.495,-0.169958
6.496,-0.0594772
6.497,0.56458
6.498,0.330649
6.499,-0.156466
6.5,0.0749973
6.501,0.641578
6.502,0.0306626
6.503,0.0942257
6.504,-0.361853
6.505,0.226489
6.506,-0.273583
6.507,-0.0217193
6.508,-0.016273
6.509,0.121475
6.51,0.777108
6.511,-0.105268
6.512,0.0812158
6.513,0.302318
6.514,0.129435
6.515,0.364295
6.516,-0.23976
6.517,0.331508
6.518,-0.193824
6.519,0.0326451
6.52,-0.359117
6.521,0.174629
6.522,0.331148
6.523,0.0421062
6.524,-0.310261
6.525,-0.21686
6.526,-0.616523
6.527,0.0608767
6.528,0.332862
6.529,-0.467646
6.53,-0.705508
6.531,0.270905
6.532,0.0525435
6.533,0.235958
6.534,0.231538
6.535,-0.285747
6.536,-0.39074
6.537,0.915004
6.538,-0.0422735
6.539,0.261295
6.54,0.213225
6.541,0.0796889
6.542,-0.233127
6.543,0.244264
6.544,0.578848
6.545,0.0911789
6.546,0.110609
6.547,0.226349
6.548,0.0967293
6.549,0.14054
6.55,0.0949814
6.551,-0.151716
6.552,0.444868
6.553,-0.446732
6.554,-0.0287507
6.555,0.535248
6.556,0.151668
6.557,0.679711
6.558,0.138899
6.559,0.598369
6.56,0.493385
6.561,-0.424822
6.562,0.147712
6.563,0.442453
6.564,-0.0915369
6.565,0.404563
6.566,0.0730193
6.567,-0.121043
6.568,-0.172011
6.569,-0.0229325
6.57,0.323162
6.571,0.721692
6.572,0.418102
6.573,-0.298444
6.574,0.304247
6.575,-0.531809
6.576,0.0729348
6.577,-0.0250364
6.578,0.420978
6.579,0.420308
6.58,0.0380367
6.581,-0.249215
6.582,-0.0156397
6.583,0.00457919
6.584,-0.138384
6.585,0.64529
6.586,-0.501292
6.587,-0.302795
6.588,-0.027307
6.589,0.237239
6.59,-0.270514
6.591,-0.166067
6.592,0.541055
6.593,0.209011
6.594,0.0356464
6.595,-0.25444
6.596,0.0463706
6.597,-0.241804
6.598,0.162654
6.599,-0.358495
6.6,0.128216
6.601,0.00891843
6.602,-0.0985719
6.603,0.190448
6.604,-0.150298
6.605,0.0169759
6.606,0.135625
6.607,-0.245468
6.608,0.417123
6.609,0.689441
6.61,-0.523171
6.611,-0.568917
6.612,0.0442546
6.613,0.393809
6.614,0.237558
6.615,-0.632382
6.616,-0.167145
6.617,0.20723
6.618,0.245942
6.619,-0.00841489
6.62,-0.299232
6.621,0.0968795
6.622,0.0288359
6.623,0.212742
6.624,-0.189537
6.625,0.379062
6.626,-0.240889
6.627,0.280698
6.628,-0.589958
6.629,0.314016
6.63,0.277912
6.631,0.143024
6.632,0.424332
6.633,-0.289224
6.634,-0.153015
6.635,-0.32908
6.636,0.306836
6.637,0.292971
6.638,0.499308
6.639,-0.191517
6.64,-0.423331
6.641,0.292537
6.642,-0.0429723
6.643,0.204815
6.644,0.0950772
6.645,-0.284403
6.646,0.295899
6.647,0.695033
6.648,0.339581
6.649,-0.109034
6.65,0.689162
6.651,-0.260528
6.652,0.504387
6.653,-0.437155
6.654,-0.0487957
6.655,0.175434
6.656,0.29081
6.657,0.463318
6.658,-0.33747
6.659,-0.124077
6.66,0.113329
6.661,-0.158783
6.662,0.00271029
6.663,0.0110425
6.664,0.290245
6.665,0.216226
6.666,0.285878
6.667,-1.27361
6.668,-0.120945
6.669,0.518094
6.67,0.15521
6.671,-0.459058
6.672,-1.19413
6.673,-0.588224
6.674,0.648621
6.675,0.72167
6.676,0.414551
6.677,0.521965
6.678,-0.437278
6.679,0.416985
6.68,0.106985
6.681,-0.170314
6.682,-0.000959537
6.683,0.488142
6.684,-0.646559
6.685,-0.411289
6.686,-0.472617
6.687,0.0356022
6.688,-0.498308
6.689,-0.39048
6.69,0.0237898
6.691,0.296555
6.692,0.242698
6.693,-0.446441
6.694,-0.431717
6.695,0.0503443
6.696,-0.224937
6.697,0.180013
6.698,-0.291599
6.699,-0.0390382
6.7,0.139241
6.701,0.452416
6.702,-0.154769
6.703,0.652592
6.704,-0.0787523
6.705,-0.729532
6.706,-0.0326885
6.707,0.711197
6.708,-0.771225
6.709,-0.326983
6.71,0.150654
6.711,-0.0917349
6.712,-0.0452689
6.713,0.54395
6.714,-0.33902
6.715,-0.2406
6.716,-0.148105
6.717,-0.298411
6.718,0.0140029
6.719,-0.297765
6.72,0.839449
6.721,-0.222128
6.722,0.523446
6.723,0.019812
6.724,0.542675
6.725,-0.956593
6.726,-0.0828634
6.727,-0.000484016
6.728,-0.301857
6.729,-0.0682547
6.73,-0.8683
6.731,0.196023
6.732,0.910436
6.733,-0.609908
6.734,0.209397
6.735,0.350617
6.736,-0.273613
6.737,0.0227322
6.738,-0.230346
6.739,0.212596
6.74,-0.313284
6.741,-0.0864023
6.742,0.477268
6.743,-0.0258644
6.744,0.110089
6.745,0.314723
6.746,0.262065
6.747,0.761025
6.748,0.784066
6.749,-0.268129
6.75,-0.0416718
6.751,-0.177006
6.752,-0.304694
6.753,-0.797118
6.754,-0.389937
6.755,0.598417
6.756,-0.542349
6.757,-0.456119
6.758,-0.143787
6.759,0.195378
6.76,0.0743972
6.761,0.662005
6.762,0.190789
6.763,0.525486
6.764,-0.00644324
6.765,0.0622581
6.766,0.22304
6.767,-0.291309
6.768,-0.235647
6.769,-0.405273
6.77,0.109597
6.771,0.286
6.772,-0.144022
6.773,0.01302
6.774,0.318229
6.775,0.336908
6.776,-0.0382198
6.777,0.134436
6.778,0.0486817
6.779,-0.351119
6.78,0.158751
6.781,0.495325
6.782,-0.238583
6.783,-0.172764
6.784,0.114798
6.785,0.025923
6.786,-0.134681
6.787,0.715133
6.788,0.159622
6.789,-0.34814
6.79,0.319174
6.791,-0.472076
6.792,-0.297123
6.793,-0.101365
6.794,-0.450772
6.795,-0.293283
6.796,-0.0749119
6.797,0.776852
6.798,0.605126
6.799,-0.510174
6.8,0.2776
6.801,-0.215422
6.802,-0.251369
6.803,-0.204274
6.804,0.0597671
6.805,-0.0201042
6.806,0.0958588
6.807,-0.17958
6.808,-0.172674
6.809,0.229777
6.81,0.252723
6.811,-0.183483
6.812,0.616456
6.813,-0.0477458
6.814,0.829523
6.815,-0.295951
6.816,-0.167585
6.817,0.10431
6.818,0.0508857
6.819,-0.125066
6.82,-0.0232126
6.821,0.185888
6.822,-0.152229
6.823,0.127985
6.824,0.293482
6.825,0.699781
6.826,-0.338696
6.827,0.0792019
6.828,0.133448
6.829,-0.299824
6.83,-0.540949
6.831,0.554892
6.832,-0.34522
6.833,0.148199
6.834,0.0420669
6.835,-0.209841
6.836,-0.226124
6.837,0.384443
6.838,-0.0286929
6.839,-0.0174393
6.84,0.281498
6.841,-0.0474138
6.842,-0.0477381
6.843,-0.250574
6.844,-0.120404
6.845,-0.313394
6.846,-0.545172
6.847,-0.166312
6.848,-0.750029
6.849,-0.160702
6.85,0.286708
6.851,0.329146
6.852,-0.184681
6.853,-0.0824633
6.854,0.127447
6.855,0.386572
6.856,-0.606679
6.857,-0.0732269
6.858,-0.803488
6.859,-0.0252034
6.86,0.613979
6.861,-0.694836
6.862,-0.0490892
6.863,-0.410664
6.864,-0.248966
6.865,-0.0757424
6.866,-0.16733
6.867,0.417737
6.868,0.0533253
6.869,-0.0401401
6.87,0.332673
6.871,-0.83113
6.872,0.30148
6.873,-0.176212
6.874,0.00866094
6.875,-0.232594
6.876,0.278984
6.877,0.0181433
6.878,-0.0798669
6.879,-0.295084
6.88,0.183142
6.881,-0.0712471
6.882,0.290965
6.883,0.120364
6.884,-0.859683
6.885,-0.325991
6.886,0.251805
6.887,-0.0411923
6.888,0.136563
6.889,0.0916428
6.89,0.523365
6.891,0.0914991
6.892,0.590785
6.893,-0.274029
6.894,0.24012
6.895,-0.662814
6.896,-0.673511
6.897,-0.0871754
6.898,-0.352643
6.899,0.320537
6.9,0.284603
6.901,0.16643
6.902,0.0123032
6.903,0.00978822
6.904,0.0827776
6.905,0.126913
6.906,0.36553
6.907,-0.521832
6.908,0.0346304
6.909,0.587557
6.91,-0.0105028
6.911,0.311832
6.912,0.100187
6.913,0.204514
6.914,-0.0515092
6.915,0.472813
6.916,-0.220233
6.917,0.264175
6.918,-0.441101
6.919,-0.724152
6.92,-0.00942061
6.921,0.134744
6.922,-0.182241
6.923,-0.11677
6.924,-0.483866
6.925,0.301066
6.926,0.330699
6.927,0.308425
6.928,-0.0472986
6.929,-0.442248
6.93,-0.775188
6.931,0.429244
6.932,0.184124
6.933,0.176919
6.934,0.398716
6.935,-0.045713
6.936,0.179739
6.937,0.135404
6.938,-0.153335
6.939,-0.436222
6.94,-0.141942
6.941,0.0227614
6.942,-0.287578
6.943,0.365288
6.944,0.0733878
6.945,0.132512
6.946,0.660289
6.947,0.585222
6.948,0.938323
6.949,0.0519406
6.95,-0.587965
6.951,0.556094
6.952,0.295321
6.953,-0.410764
6.954,-0.272031
6.955,0.832721
6.956,0.0933854
6.957,0.0264925
6.958,-0.843641
6.959,0.146668
6.96,-0.00206755
6.961,0.330504
6.962,-0.125549
6.963,0.0815007
6.964,-0.110376
6.965,0.0247732
6.966,-0.146276
6.967,-0.172443
6.968,-0.436164
6.969,0.385008
6.97,-0.209154
6.971,-0.0478532
6.972,0.147607
6.973,-0.412717
6.974,0.281632
6.975,-0.612713
6.976,-0.203369
6.977,-0.189794
6.978,-0.0565108
6.979,0.137163
6.98,0.158771
6.981,0.0685051
6.982,0.240456
6.983,-0.415463
6.984,0.297872
6.985,-0.181383
6.986,-0.125236
6.987,-0.160283
6.988,-0.400029
6.989,-0.250542
6.99,-0.406032
6.991,-0.402209
6.992,0.246663
6.993,0.441502
6.994,-0.212661
6.995,-0.0940678
6.996,-0.487601
6.997,-0.18771
6.998,-0.0874762
6.999,-0.530274
7,-0.316914
7.001,-0.00106655
7.002,-0.237799
7.003,-0.145271
7.004,-0.369368
7.005,-0.461346
7.006,-0.499183
7.007,0.136107
7.008,-0.294187
7.009,0.102244
7.01,-0.303977
7.011,-0.295826
7.012,0.128745
7.013,0.00689344
7.014,-0.23735
7.015,-0.523732
7.016,0.359295
7.017,-0.0610139
7.018,0.500499
7.019,0.861971
7.02,-0.54742
7.021,-0.00109304
7.022,-0.0947689
7.023,-0.281317
7.024,0.260947
7.025,-0.272121
7.026,0.237556
7.027,0.11378
7.028,-0.443331
7.029,-0.0804472
7.03,-0.65874
7.031,0.0475181
7.032,-0.408521
7.033,0.00178316
7.034,0.509688
7.035,0.0426695
7.036,0.0486686
7.037,0.500787
7.038,-0.314253
7.039,-0.520034
7.04,0.0685025
7.041,-0.240706
7.042,-0.0822793
7.043,-0.0823072
7.044,0.522997
7.045,-0.0944351
7.046,-0.0290232
7.047,0.782542
7.048,0.26908
7.049,0.209875
7.05,-0.261149
7.051,-0.37972
7.052,-0.122632
7.053,-0.583697
7.054,0.922411
7.055,-0.353632
7.056,-0.33688
7.057,0.184257
7.058,-0.0385179
7.059,0.149905
7.06,0.246938
7.061,0.140799
7.062,-0.00319223
7.063,0.422157
7.064,0.455875
7.065,0.587413
7.066,0.704701
7.067,0.411844
7.068,-0.00664463
7.069,0.208624
7.07,0.107707
7.071,0.201033
7.072,-0.161198
7.073,0.5503
7.074,0.458856
7.075,0.181179
7.076,-0.613001
7.077,-0.000204299
7.078,-0.25933
7.079,-0.409067
7.08,0.066086
7.081,-0.0305104
7.082,-0.235333
7.083,-0.0581731
7.084,-0.447667
7.085,0.0224605
7.086,0.487788
7.087,0.564431
7.088,-0.493595
7.089,-0.389029
7.09,-0.822958
7.091,-0.277233
7.092,0.454981
7.093,-0.0732077
7.094,-0.0677683
7.095,-0.152774
7.096,0.184549
7.097,0.0495374
7.098,-0.302528
7.099,-0.0578637
7.1,-0.163612
7.101,0.240866
7.102,-0.28255
7.103,-0.529304
7.104,0.196266
7.105,-0.138171
7.106,0.749884
7.107,0.0158685
7.108,0.541883
7.109,0.366394
7.11,0.228529
7.111,-0.374101
7.112,0.12934
7.113,-0.370597
7.114,0.297973
7.115,0.734939
7.116,0.0654092
7.117,-0.269866
7.118,0.13583
7.119,-0.103495
7.12,-0.0280042
7.121,-0.274832
7.122,0.277764
7.123,-0.0299174
7.124,0.112718
7.125,0.23005
7.126,0.0277777
7.127,-0.184102
7.128,0.282673
7.129,0.437433
7.13,-0.22426
7.131,0.405878
7.132,-0.0943401
7.133,-0.0636253
7.134,0.359754
7.135,0.0540388
7.136,-0.35951
7.137,0.140261
7.138,0.285305
7.139,0.111055
7.14,0.487545
7.141,0.679197
7.142,0.224851
7.143,-0.599344
7.144,-0.0699889
7.145,0.0083368
7.146,0.13189
7.147,0.228771
7.148,0.155484
7.149,0.312883
7.15,0.0832589
7.151,0.833798
7.152,-0.118445
7.153,-0.0285189
7.154,-0.334599
7.155,0.321492
7.156,0.307564
7.157,0.0377734
7.158,-0.0826262
7.159,-0.480378
7.16,0.107015
7.161,-0.28973
7.162,-0.434452
7.163,0.271068
7.164,0.296366
7.165,-0.129727
7.166,-0.477995
7.167,0.0173372
7.168,-0.0790164
7.169,-0.0346291
7.17,0.480078
7.171,-0.42192
7.172,0.0874925
7.173,0.220346
7.174,0.455964
7.175,-0.016473
7.176,0.0418136
7.177,0.143888
7.178,-0.416567
7.179,0.771324
7.18,-0.197349
7.181,0.218156
7.182,-0.629075
7.183,-0.318122
7.184,-0.00327109
7.185,-0.367304
7.186,0.0120956
7.187,-0.383546
7.188,-0.0397183
7.189,-0.0564868
7.19,0.0920945
7.191,-0.6458
7.192,0.528109
7.193,0.0668093
7.194,0.202822
7.195,0.335414
7.196,-0.0690622
7.197,0.0371242
7.198,0.395598
7.199,-0.374136
7.2,0.499565
7.201,-0.710966
7.202,-0.162722
7.203,0.169612
7.204,-0.449698
7.205,0.168432
7.206,0.56222
7.207,-0.363017
7.208,-0.202937
7.209,-0.785915
7.21,-0.518464
7.211,-0.243573
7.212,0.359408
7.213,-0.138394
7.214,-0.283038
7.215,-0.439764
7.216,0.138944
7.217,-0.0263542
7.218,-0.470707
7.219,0.189742
7.22,-0.250547
7.221,-0.520415
7.222,-0.388364
7.223,-0.444338
7.224,-0.676423
7.225,-0.253799
7.226,-0.175405
7.227,-0.58434
7.228,-0.44696
7.229,0.257322
7.23,-0.562635
7.231,-0.0856743
7.232,0.205286
7.233,0.0187981
7.234,-0.700102
7.235,-0.234289
7.236,0.096887
7.237,0.144254
7.238,0.428457
7.239,-0.0344349
7.24,0.248752
7.241,0.17715
7.242,0.573727
7.243,0.407449
7.244,1.5056
7.245,1.10769
7.246,0.641203
7.247,0.695644
7.248,0.436176
7.249,0.472281
7.25,0.69144
7.251,0.376961
7.252,0.555114
7.253,0.293937
7.254,0.700123
7.255,0.317146
7.256,0.708873
7.257,0.851771
7.258,0.411511
7.259,1.24208
7.26,0.247373
7.261,-0.0344384
7.262,0.584244
7.263,-0.0840801
7.264,0.182383
7.265,0.27446
7.266,0.837754
7.267,0.479219
7.268,0.010078
7.269,0.183594
7.27,0.232412
7.271,-0.290883
7.272,0.207188
7.273,0.150569
7.274,0.013397
7.275,-0.195854
7.276,-0.297449
7.277,-0.187508
7.278,-0.499235
7.279,-0.255742
7.28,0.618371
7.281,-0.0562892
7.282,-0.346271
7.283,0.473298
7.284,-0.280421
7.285,0.187738
7.286,-0.347904
7.287,-0.233891
7.288,-0.00809601
7.289,-0.12545
7.29,0.224401
7.291,-0.471517
7.292,0.101542
7.293,0.0510384
7.294,0.023668
7.295,0.373503
7.296,-0.0898067
7.297,-0.0136355
7.298,-0.0788458
7.299,0.485245
7.3,0.484265
7.301,0.839534
7.302,0.52585
7.303,0.108155
7.304,-0.201922
7.305,0.347538
7.306,0.275101
7.307,0.37236
7.308,-0.0572145
7.309,0.000299856
7.31,0.484989
7.311,-0.123734
7.312,0.0432524
7.313,0.191447
7.314,0.199728
7.315,-0.368993
7.316,0.00783667
7.317,1.02326
7.318,-0.125394
7.319,-0.245104
7.32,-0.120336
7.321,0.236481
7.322,0.428657
7.323,0.505875
7.324,-0.114487
7.325,-0.356999
7.326,0.199866
7.327,0.111306
7.328,-0.136826
7.329,-0.106334
7.33,0.142031
7.331,-0.155093
7.332,-0.0241135
7.333,-0.125153
7.334,0.144936
7.335,-0.37532
7.336,-0.0355839
7.337,0.530504
7.338,-0.327199
7.339,0.747038
7.34,-0.21706
7.341,0.0130571
7.342,0.0299249
7.343,-0.346741
7.344,0.213792
7.345,0.276539
7.346,-0.115485
7.347,0.0437769
7.348,0.022544
7.349,0.192856
7.35,0.0326724
7.351,-0.332615
7.352,-0.284707
7.353,0.485737
7.354,0.0786515
7.355,0.182919
7.356,0.658315
7.357,-0.331699
7.358,-0.0125761
7.359,0.0642226
7.36,0.225008
7.361,-0.188136
7.362,0.493786
7.363,0.52968
7.364,-0.453388
7.365,0.0629091
7.366,0.571954
7.367,-0.791609
7.368,-0.146061
7.369,-0.0281541
7.37,0.229259
7.371,-0.0211303
7.372,-0.395054
7.373,0.211493
7.374,-0.151621
7.375,-0.297956
7.376,-0.267884
7.377,0.367024
7.378,-0.751112
7.379,0.0524747
7.38,0.0836828
7.381,-0.32424
7.382,-0.189474
7.383,0.419949
7.384,-0.609454
7.385,0.652568
7.386,-0.304956
7.387,0.443329
7.388,0.025068
7.389,0.087731
7.39,-0.674275
7.391,-0.660152
7.392,-0.275289
7.393,-0.339119
7.394,-0.00588859
7.395,0.197393
7.396,0.35708
7.397,-0.00269353
7.398,-0.137412
7.399,-0.279189
7.4,0.131731
7.401,0.0579573
7.402,0.00801514
7.403,-0.465299
7.404,-0.127463
7.405,0.244205
7.406,0.777777
7.407,0.284341
7.408,0.161246
7.409,-0.128006
7.41,-0.331935
7.411,0.114167
7.412,0.29782
7.413,0.441649
7.414,0.448006
7.415,-0.186027
7.416,-0.0112184
7.417,0.428146
7.418,0.467169
7.419,-0.239991
7.42,0.524346
7.421,0.194806
7.422,-0.81126
7.423,0.342124
7.424,-0.234154
7.425,0.0683522
7.426,-0.529143
7.427,0.993526
7.428,0.418845
7.429,-0.139231
7.43,0.557983
7.431,0.176145
7.432,0.0348589
7.433,0.0641127
7.434,-0.0107937
7.435,-0.328942
7.436,-0.293956
7.437,0.410752
7.438,0.646831
7.439,-0.368529
7.44,-0.34846
7.441,0.239348
7.442,-0.0237742
7.443,0.18051
7.444,0.129457
7.445,-0.885523
7.446,0.219013
7.447,-0.407701
7.448,-0.108688
7.449,0.171711
7.45,0.425746
7.451,-0.0349882
7.452,0.501188
7.453,0.0224491
7.454,0.368128
7.455,0.392192
7.456,0.0282831
7.457,-0.196117
7.458,0.0965011
7.459,-0.423063
7.46,0.348119
7.461,0.201349
7.462,0.0950577
7.463,0.0755546
7.464,-0.148681
7.465,-0.0911307
7.466,-0.111469
7.467,0.108256
7.468,0.0146076
7.469,0.490885
7.47,0.333064
7.471,0.0654601
7.472,0.240564
7.473,-0.0878259
7.474,-0.103006
7.475,0.139464
7.476,0.187871
7.477,-0.307896
7.478,0.202304
7.479,0.15933
7.48,0.251859
7.481,-0.25409
7.482,-0.441154
7.483,0.191289
7.484,0.00361506
7.485,0.394608
7.486,-0.735558
7.487,0.144244
7.488,-0.350977
7.489,0.278909
7.49,-0.0265223
7.491,0.592503
7.492,-0.435618
7.493,-0.0782641
7.494,-0.211289
7.495,-0.366244
7.496,0.228721
7.497,0.106044
7.498,0.545833
7.499,-0.402397
7.5,-0.631634
7.501,-0.00334085
7.502,0.426111
7.503,-0.593936
7.504,-0.368277
7.505,-0.50614
7.506,0.103891
7.507,0.136294
7.508,0.00612998
7.509,-0.721339
7.51,0.168784
7.511,-0.529072
7.512,-0.182435
7.513,0.548444
7.514,0.186462
7.515,0.205099
7.516,-0.475634
7.517,-0.586915
7.518,-0.0504045
7.519,0.295457
7.52,-0.53636
7.521,-0.0566321
7.522,-0.216451
7.523,0.53152
7.524,0.207788
7.525,0.270469
7.526,0.230299
7.527,0.170222
7.528,0.392363
7.529,-0.00213838
7.53,-0.241486
7.531,0.0895073
7.532,0.416137
7.533,-0.210058
7.534,0.266074
7.535,0.0967305
7.536,0.0241839
7.537,-0.113973
7.538,0.191015
7.539,-0.0537573
7.54,0.469959
7.541,0.0361307
7.542,-0.281998
7.543,-0.740599
7.544,0.215803
7.545,-0.285671
7.546,-0.163814
7.547,0.197812
7.548,0.491653
7.549,-0.420862
7.55,-0.899691
7.551,-0.37588
7.552,-0.365468
7.553,-0.320688
7.554,-0.00216879
7.555,0.0673499
7.556,0.404866
7.557,-0.112813
7.558,0.149674
7.559,0.939339
7.56,-0.751709
7.561,-0.285495
7.562,-0.276001
7.563,-0.6278
7.564,-0.478919
7.565,-0.15928
7.566,-0.108917
7.567,0.21896
7.568,0.817106
7.569,0.11708
7.57,0.659337
7.571,0.692999
7.572,-0.177647
7.573,-0.059764
7.574,0.322591
7.575,0.126051
7.576,-0.388598
7.577,-0.437935
7.578,0.0448549
7.579,-0.753982
7.58,0.229035
7.581,0.138006
7.582,-0.371523
7.583,-0.467117
7.584,-0.292303
7.585,0.108365
7.586,-0.26721
7.587,-0.15966
7.588,0.729647
7.589,0.267464
7.59,-0.221819
7.591,-0.33041
7.592,0.152734
7.593,0.882379
7.594,-0.107448
7.595,-0.654763
7.596,0.40232
7.597,-0.00971107
7.598,0.121139
7.599,0.0679715
7.6,0.187395
7.601,0.251764
7.602,-0.234454
7.603,0.276018
7.604,-0.47374
7.605,0.195381
7.606,-0.220305
7.607,0.102616
7.608,-0.236097
7.609,-0.187479
7.61,0.105838
7.611,-0.180557
7.612,0.00208048
7.613,0.194762
7.614,0.542941
7.615,-0.277844
7.616,0.0381738
7.617,0.123147
7.618,0.0767773
7.619,0.284036
7.62,0.20606
7.621,0.220608
7.622,0.350779
7.623,0.138124
7.624,-0.042209
7.625,-0.0608557
7.626,-0.22066
7.627,-0.41168
7.628,-0.392775
7.629,0.184864
7.63,-0.536079
7.631,0.164438
7.632,0.0845383
7.633,0.308755
7.634,0.262805
7.635,0.196108
7.636,-0.494465
7.637,0.0147799
7.638,0.260747
7.639,-0.205575
7.64,0.00291078
7.641,-0.196812
7.642,-0.0578978
7.643,-0.149689
7.644,0.0975141
7.645,0.568147
7.646,-0.475562
7.647,-0.0937735
7.648,0.0846216
7.649,-0.153576
7.65,0.702399
7.651,-0.0446914
7.652,-0.395446
7.653,0.0831914
7.654,-0.256813
7.655,0.43684
7.656,0.303361
7.657,0.288377
7.658,-0.226638
7.659,-0.510199
7.66,0.0712563
7.661,0.194536
7.662,-0.11272
7.663,-0.151454
7.664,-0.0480251
7.665,-0.23306
7.666,0.151624
7.667,-0.17561
7.668,0.177733
7.669,-0.075158
7.67,-0.230591
7.671,0.127464
7.672,-0.66419
7.673,-0.21549
7.674,-0.278191
7.675,0.267552
7.676,-0.152067
7.677,-0.0276545
7.678,0.410574
7.679,0.503948
7.68,0.275907
7.681,0.179672
7.682,-0.326807
7.683,0.354077
7.684,-0.548523
7.685,0.241
7.686,-0.160159
7.687,-0.391325
7.688,-0.0834595
7.689,0.100187
7.69,0.387331
7.691,-0.45935
7.692,-0.00647636
7.693,0.370829
7.694,0.399918
7.695,0.25918
7.696,-0.152941
7.697,0.136942
7.698,-0.0357333
7.699,-0.493772
7.7,0.661257
7.701,-0.191674
7.702,0.211309
7.703,0.391153
7.704,-0.17349
7.705,-0.00295746
7.706,-0.0361834
7.707,-0.956692
7.708,0.126323
7.709,0.185254
7.71,0.0501307
7.711,0.158142
7.712,-0.900246
7.713,-0.0610105
7.714,0.223911
7.715,0.451749
7.716,0.107245
7.717,0.0135917
7.718,0.113425
7.719,-0.215149
7.72,-0.563895
7.721,-0.276318
7.722,0.213778
7.723,0.142317
7.724,0.194739
7.725,-0.203204
7.726,-0.0437311
7.727,-0.336766
7.728,0.400167
7.729,0.207176
7.73,-0.380054
7.731,-0.655489
7.732,-0.0122955
7.733,-0.361486
7.734,-0.157083
7.735,0.525714
7.736,-0.264644
7.737,0.202765
7.738,-0.0496842
7.739,0.138062
7.74,-0.251705
7.741,0.448403
7.742,0.0252869
7.743,0.274398
7.744,-0.0399508
7.745,0.295818
7.746,0.290629
7.747,0.573183
7.748,0.221033
7.749,-0.0292353
7.75,-0.408006
7.751,-0.523978
7.752,-0.418053
7.753,0.758929
7.754,-0.0375981
